D:\Data GC-MS-77B\2017\MARCH\26-03-17\17281-17-LQ-AGDM.D 26 Mar 17  07:21 am
Start of data points
1.29387,12742
1.3006,21357
1.30735,282867
1.3141,3013296
1.32083,5048697
1.32758,4696270
1.33432,4525690
1.34107,4565044
1.3478,4624928
1.35455,4693186
1.36128,4763336
1.36803,4825087
1.37478,4870209
1.38152,4925483
1.38827,4980090
1.395,5030542
1.40175,5103187
1.40848,5201874
1.41523,5238899
1.42198,5295816
1.42872,5386616
1.43547,5692699
1.4422,5980714
1.44895,6097334
1.45568,6231904
1.46243,6316934
1.46918,6446749
1.47592,6572153
1.48267,6659541
1.4894,6696814
1.51027,16932564
1.51765,16735321
1.52502,16568869
1.5324,16152800
1.53977,15707557
1.54715,17250198
1.55452,20917080
1.5619,21111538
1.56928,20583870
1.57665,20050514
1.58403,19552512
1.5914,19531436
1.59878,19427792
1.60617,20232744
1.61353,22230794
1.62092,22548036
1.62828,22129938
1.63567,22107552
1.64303,23129136
1.65042,23149560
1.6578,22721912
1.66517,23036220
1.67255,23536896
1.67992,25006744
1.6873,25861382
1.69468,25397206
1.70205,24820798
1.70943,24227976
1.7168,23582636
1.72418,23507610
1.73155,23272504
1.73893,22493042
1.74632,21648760
1.75368,20691878
1.76107,19607498
1.76843,18424508
1.77582,17168414
1.78318,15907177
1.79057,14638302
1.79795,13399727
1.80532,12171652
1.8127,11141372
1.82007,10874386
1.82745,11227490
1.83483,10704656
1.8422,10566710
1.84958,12408829
1.85695,15328097
1.86433,22139490
1.8717,27929036
1.87908,30879300
1.88647,30852222
1.89383,30378126
1.90122,29683850
1.90858,29074196
1.91597,28470900
1.92335,27827542
1.93072,27733218
1.9381,28749928
1.94547,28678028
1.95285,27657206
1.96022,26464396
1.9676,25269154
1.97498,24310796
1.98235,23555292
1.98973,22297462
1.9971,20850760
2.00448,19359926
2.01187,17665858
2.01923,16307190
2.02662,17272410
2.03398,19199494
2.04137,18881040
2.04873,17926886
2.05612,17351540
2.0635,16973124
2.07087,17120798
2.07825,17621166
2.08562,18403316
2.093,19088256
2.10038,18343242
2.10775,17965440
2.11513,17854540
2.1225,17294584
2.12988,16611419
2.13725,16229449
2.14463,15449955
2.15202,14387318
2.15938,13095652
2.16677,12144357
2.17413,13057888
2.18152,14567937
2.1889,14136444
2.19627,13007676
2.20365,11988943
2.21102,11273490
2.2184,11891240
2.22577,13066304
2.23315,15623163
2.24053,16852364
2.2479,16378972
2.25528,15683652
2.26265,14827955
2.27003,13867502
2.27742,12913323
2.28478,11861260
2.29217,10862153
2.29953,9686661
2.30692,8503772
2.31428,7423137
2.32167,6402768
2.32905,5481289
2.33642,4667219
2.3438,3967418
2.35117,3402252
2.35855,2995196
2.36592,2663892
2.3733,2296137
2.38068,1946532
2.38805,1673869
2.39543,1519275
2.4028,1555039
2.41018,2869964
2.41757,6198119
2.42493,8188513
2.43232,8182057
2.43968,7675488
2.44707,7113560
2.45443,6751492
2.46182,6423293
2.4692,6171487
2.47657,5851569
2.48395,5288218
2.49132,5383102
2.4987,8184486
2.50608,12210589
2.51345,17506184
2.52083,20742442
2.5282,20977256
2.53558,21065806
2.54295,21413056
2.55033,20900918
2.55772,19874194
2.56508,18482326
2.57247,17031732
2.57983,15515882
2.58722,16349073
2.5946,19993924
2.60197,21209080
2.60935,20172294
2.61672,18790154
2.6241,17241698
2.63147,15893793
2.63885,14739289
2.64623,13555595
2.6536,12163188
2.66098,10717968
2.66835,9456522
2.67573,9004001
2.68312,9219036
2.69048,9576052
2.69787,13305231
2.70523,21801026
2.71262,25707844
2.71998,26015824
2.72737,25453612
2.73475,25001664
2.74212,24499444
2.7495,23595058
2.75687,22577210
2.76425,20951962
2.77163,18978710
2.779,16965716
2.78638,14810879
2.79375,12713570
2.80113,10783869
2.8085,9652454
2.81588,11463939
2.82327,14472909
2.83063,14892912
2.83802,13769259
2.84538,12767079
2.85277,12506980
2.86015,13134395
2.86752,13959237
2.8749,14070426
2.88227,13422201
2.88965,12335485
2.89702,11295021
2.9044,10161812
2.91178,9130641
2.91915,8159753
2.92653,6997474
2.9339,6152344
2.94128,5865695
2.94865,5536804
2.95603,4867321
2.96342,4237334
2.97078,4047371
2.97817,4410294
2.98553,4596437
2.99292,4288811
3.0003,3766302
3.00767,3285966
3.01505,2889436
3.02242,2543667
3.0298,2490352
3.03717,2410537
3.04455,2156862
3.05193,2109288
3.0593,2773297
3.06668,4182965
3.07405,6016330
3.08143,6760585
3.08882,6449136
3.09618,5869703
3.10357,5389300
3.11093,4792381
3.11832,4204208
3.12568,4087646
3.13307,5184930
3.14045,6119158
3.14782,6448893
3.1552,8235214
3.16257,10364773
3.16995,10568377
3.17733,10049658
3.1847,9698009
3.19208,9435840
3.19945,8468538
3.20683,7348918
3.2142,6114362
3.22158,4977817
3.22897,4003256
3.23633,3394115
3.24372,3495635
3.25108,3828902
3.25847,3663650
3.26585,3347659
3.27322,2946998
3.2806,2535174
3.28797,2202329
3.29535,1867473
3.30272,1640673
3.3101,1505295
3.31748,1362262
3.32485,1247002
3.33223,1693912
3.3396,4804352
3.34698,10589689
3.35437,13380846
3.36173,12806007
3.36912,12103576
3.37648,11177815
3.38387,10143030
3.39123,9101982
3.39862,9746256
3.406,12023072
3.41337,13395138
3.42075,12918493
3.42812,11768122
3.4355,10939068
3.44288,9997323
3.45025,9315471
3.45763,10244269
3.465,10809142
3.47238,10131482
3.47975,9112742
3.48713,8249550
3.49452,7213362
3.50188,6214517
3.50927,6153174
3.51663,7480160
3.52402,8978621
3.53138,9546546
3.53877,10040675
3.54615,12393737
3.55352,21380808
3.5609,29361602
3.56827,31583362
3.57565,31540928
3.58303,30436532
3.5904,29061324
3.59778,27433976
3.60515,26047374
3.61253,25112182
3.6199,22969930
3.62728,20501830
3.63467,17426556
3.64203,14448384
3.64942,11273165
3.65678,8555978
3.66417,6465046
3.67155,4782521
3.67892,4017629
3.6863,3873710
3.69367,3502417
3.70105,3203657
3.70842,3068843
3.7158,2936938
3.72318,2545740
3.73055,2050245
3.73793,1593430
3.7453,1211033
3.75268,888322
3.76007,728155
3.76743,761051
3.77482,839753
3.78218,964102
3.78957,1354217
3.79693,1926693
3.80432,1997340
3.8117,1970021
3.81907,2109172
3.82645,2379518
3.83382,2434398
3.8412,2386040
3.84858,2345964
3.85595,2059977
3.86333,1707525
3.8707,1495656
3.87808,1414404
3.88545,1547017
3.89283,1870627
3.90022,2115015
3.90758,3210399
3.91497,6120464
3.92233,8012320
3.92972,7643879
3.9371,6833127
3.94447,5724232
3.95185,4662649
3.95922,3614204
3.9666,2774640
3.97397,2120086
3.98135,1714195
3.98873,1538382
3.9961,1705442
4.00348,2043108
4.01085,2006237
4.01823,1744492
4.02562,1466150
4.03298,1425328
4.04037,1636372
4.04773,2122161
4.05512,2643983
4.06248,2615001
4.06987,2260782
4.07725,1905852
4.08462,1517134
4.092,1293078
4.09937,1226315
4.10675,1114900
4.11412,940099
4.1215,754664
4.12888,652821
4.13625,606909
4.14363,536432
4.151,489596
4.15838,459264
4.16577,425284
4.17313,500111
4.18052,776538
4.18788,955437
4.19527,1037276
4.20263,1070432
4.21002,1002380
4.2174,828903
4.22477,699988
4.23215,675105
4.23952,750461
4.2469,905281
4.25428,1187244
4.26165,1451417
4.26903,1488178
4.2764,1369940
4.28378,1181978
4.29115,1005692
4.29853,831352
4.30592,687064
4.31328,710453
4.32067,811931
4.32803,954378
4.33542,1552708
4.3428,2434495
4.35017,2733665
4.35755,2535093
4.36492,2095355
4.3723,1642197
4.37967,1379072
4.38705,1394740
4.39443,1310648
4.4018,1118961
4.40918,936373
4.41655,811510
4.42393,729794
4.43132,696621
4.43868,703092
4.44607,752526
4.45343,746416
4.46082,694522
4.46818,619463
4.47557,548250
4.48295,551757
4.49032,596946
4.4977,620371
4.50507,601921
4.51245,553022
4.51983,527174
4.5272,519126
4.53458,625797
4.54195,731056
4.54933,751537
4.5567,743419
4.56408,739582
4.57147,699936
4.57883,610529
4.58622,561535
4.59358,701335
4.60097,851935
4.60835,876113
4.61572,840140
4.6231,791206
4.63047,751463
4.63785,751930
4.64522,819032
4.6526,832911
4.65998,812100
4.66735,908062
4.67473,3054114
4.6821,9757574
4.68948,15591731
4.69685,16378093
4.70423,13910494
4.71162,9676005
4.71898,5855598
4.72637,3286004
4.73373,1769498
4.74112,993865
4.7485,636937
4.75587,607939
4.76325,2219709
4.77062,10379576
4.778,23556914
4.78537,30553420
4.79275,31755550
4.80013,28234074
4.8075,19779106
4.81488,10716426
4.82225,5440562
4.82963,2894199
4.83702,1614116
4.84438,1054373
4.85177,844555
4.85913,782192
4.86652,779627
4.87388,745448
4.88127,649654
4.88865,572645
4.89602,553171
4.9034,544067
4.91077,477215
4.91815,390562
4.92553,314248
4.9329,321755
4.94028,380664
4.94765,422672
4.95503,500109
4.9624,635018
4.96978,719800
4.97717,776718
4.98453,756591
4.99192,741184
4.99928,792665
5.00667,722434
5.01405,637124
5.02142,586534
5.0288,517927
5.03617,402314
5.04355,313241
5.05092,492623
5.0583,2869491
5.06568,10903919
5.07305,17556656
5.08043,17074268
5.0878,11835870
5.09518,6610105
5.10257,3587505
5.10993,3024029
5.11732,2873875
5.12468,2063809
5.13207,1112993
5.13943,525358
5.14682,317640
5.1542,284264
5.16157,276249
5.16895,225289
5.17632,178572
5.1837,188543
5.19108,227245
5.19845,293304
5.20583,347925
5.2132,339253
5.22058,325681
5.22795,383151
5.23533,434696
5.24272,373852
5.25008,308780
5.25747,361976
5.26483,433428
5.27222,404892
5.27958,321590
5.28697,241880
5.29435,176945
5.30172,161028
5.3091,195197
5.31647,252726
5.32385,350975
5.33123,388966
5.3386,336904
5.34598,255012
5.35335,207160
5.36073,197776
5.3681,199742
5.37548,185456
5.38287,200752
5.39023,284097
5.39762,384971
5.40498,501392
5.41237,541352
5.41975,486618
5.42712,412882
5.4345,495814
5.44187,929702
5.44925,1335175
5.45662,1267176
5.464,891385
5.47138,561860
5.47875,404351
5.48613,315659
5.4935,246741
5.50088,272274
5.50827,414164
5.51563,600916
5.52302,599340
5.53038,422110
5.53777,337260
5.54513,322282
5.55252,277905
5.5599,214686
5.56727,173666
5.57465,175866
5.58202,257828
5.5894,354735
5.59678,344200
5.60415,273137
5.61153,249869
5.6189,237566
5.62628,195406
5.63365,166742
5.64103,167018
5.64842,178822
5.65578,169503
5.66317,173758
5.67053,202411
5.67792,217117
5.6853,214067
5.69267,200625
5.70005,199485
5.70742,195909
5.7148,197388
5.72217,222710
5.72955,231471
5.73693,198234
5.7443,156016
5.75168,150273
5.75905,249016
5.76643,397874
5.77382,528554
5.78118,1095623
5.78857,2631824
5.79593,3363850
5.80332,2207498
5.81068,971455
5.81807,490893
5.82545,444695
5.83282,500758
5.8402,765097
5.84757,784918
5.85495,484424
5.86232,522379
5.8697,2048754
5.87708,6411580
5.88445,10062454
5.89183,8832924
5.8992,6576907
5.90658,5164902
5.91397,2694976
5.92133,1001878
5.92872,375230
5.93608,248051
5.94347,539925
5.95083,1703590
5.95822,3803025
5.9656,4313323
5.97297,2548164
5.98035,878911
5.98772,302014
5.9951,227297
6.00248,231706
6.00985,236105
6.01723,246036
6.0246,224439
6.03198,201072
6.03935,187437
6.04673,173893
6.05412,146683
6.06148,127528
6.06887,116499
6.07623,118977
6.08362,220619
6.091,977243
6.09837,2861027
6.10575,3691164
6.11312,2251896
6.1205,875305
6.12787,363073
6.13525,223887
6.14263,158366
6.15,156596
6.15738,174092
6.16475,169037
6.17213,152068
6.17952,125891
6.18688,116591
6.19427,145242
6.20163,195547
6.20902,217780
6.21638,214589
6.22377,209886
6.23115,184089
6.23852,349271
6.2459,2343302
6.25327,8751748
6.26065,13076686
6.26803,9676767
6.2754,3531215
6.28278,1122102
6.29015,384458
6.29753,165639
6.3049,125772
6.31228,104728
6.31967,104116
6.32703,135679
6.33442,162253
6.34178,165732
6.34917,143254
6.35655,111974
6.36392,90516
6.3713,95421
6.37867,118870
6.38605,124613
6.39342,103004
6.4008,88913
6.40818,143778
6.41555,267560
6.42293,272154
6.4303,217528
6.43768,201518
6.44507,201319
6.45243,255923
6.45982,288145
6.46718,202338
6.47457,129186
6.48193,125018
6.48932,132869
6.4967,147522
6.50407,158183
6.51145,130572
6.51882,103065
6.5262,113550
6.53357,156441
6.54095,163741
6.54833,197856
6.5557,266066
6.56308,333037
6.57045,476065
6.57783,469813
6.58522,675170
6.59258,2088055
6.59997,3206901
6.60733,2100698
6.61472,712586
6.62208,197403
6.62947,117128
6.63685,123795
6.64422,131326
6.6516,121664
6.65897,137129
6.66635,177733
6.67373,187145
6.6811,151987
6.68848,151758
6.69585,209267
6.70323,238337
6.7106,199560
6.71798,181962
6.72537,154317
6.73273,134537
6.74012,147400
6.74748,342393
6.75487,981564
6.76225,1457569
6.76962,947328
6.777,320608
6.78437,117148
6.79175,89047
6.79912,92363
6.8065,86705
6.81388,78382
6.82125,85810
6.82863,99293
6.836,96157
6.84338,86965
6.85077,112651
6.85813,166422
6.86552,177052
6.87288,303579
6.88027,636700
6.88763,769895
6.89502,1072833
6.9024,1513974
6.90977,1122280
6.91715,628098
6.92452,327578
6.9319,250396
6.93928,564650
6.94665,912942
6.95403,936157
6.9614,738997
6.96878,771002
6.97615,1297644
6.98353,1191606
6.99092,622140
6.99828,300164
7.00567,183967
7.01303,132441
7.02042,177895
7.0278,217975
7.03517,155969
7.04255,98546
7.04992,111460
7.0573,222619
7.06467,294751
7.07205,265440
7.07943,442441
7.0868,536285
7.09418,298456
7.10155,123061
7.10893,79672
7.1163,69170
7.12368,64356
7.13107,67863
7.13843,94284
7.14582,135660
7.15318,141440
7.16057,111755
7.16795,92106
7.17532,166487
7.1827,555073
7.19007,943070
7.19745,716558
7.20482,647632
7.2122,877151
7.21958,564697
7.22695,180320
7.23433,78091
7.2417,94707
7.24908,183307
7.25647,271492
7.26383,262863
7.27122,548986
7.27858,1294463
7.28597,1272071
7.29333,479061
7.30072,154731
7.3081,197948
7.31547,472996
7.32285,551011
7.33022,273780
7.3376,109700
7.34498,86747
7.35235,123681
7.35973,196157
7.3671,300756
7.37448,315471
7.38185,178229
7.38923,91223
7.39662,72747
7.40398,71327
7.41137,75561
7.41873,87981
7.42612,98258
7.4335,107945
7.44087,128431
7.44825,132008
7.45562,99847
7.463,90694
7.47037,128339
7.47775,146542
7.48513,108161
7.4925,80153
7.49988,82159
7.50725,156239
7.51463,320735
7.52202,377632
7.52938,214171
7.53677,117009
7.54413,117784
7.55152,110947
7.55888,99236
7.56627,82654
7.57365,69921
7.58102,81780
7.5884,92793
7.59577,93688
7.60315,155200
7.61053,427457
7.6179,721361
7.62528,489250
7.63265,161664
7.64003,70467
7.6474,92589
7.65478,338126
7.66217,851377
7.66953,840639
7.67692,324811
7.68428,102239
7.69167,67238
7.69903,59446
7.70642,57448
7.7138,62915
7.72117,72347
7.72855,82797
7.73592,81121
7.7433,78692
7.75068,86092
7.75805,80754
7.76543,70768
7.7728,66810
7.78018,62120
7.78755,63870
7.79493,72384
7.80232,76575
7.80968,97621
7.81707,164854
7.82443,183424
7.83182,110619
7.8392,77710
7.84657,68028
7.85395,73863
7.86132,107672
7.8687,205889
7.87607,478383
7.88345,568559
7.89083,366592
7.8982,281557
7.90558,173903
7.91295,105393
7.92033,125324
7.92772,133476
7.93508,119255
7.94247,114102
7.94983,123991
7.95722,107706
7.96458,78520
7.97197,127106
7.97935,227647
7.98672,272747
7.9941,438765
8.00147,656455
8.00885,589545
8.01623,380207
8.0236,229082
8.03098,271377
8.03835,265805
8.04573,132881
8.0531,81033
8.06048,112452
8.06787,169434
8.07523,153978
8.08262,123492
8.08998,156483
8.09737,174397
8.10475,173702
8.11212,161475
8.1195,156702
8.12687,149931
8.13425,138210
8.14162,142155
8.149,140364
8.15638,149199
8.16375,116458
8.17113,67755
8.1785,56336
8.18588,56010
8.19327,64761
8.20063,78595
8.20802,135626
8.21538,237148
8.22277,207021
8.23013,104842
8.23752,62705
8.2449,49561
8.25227,47917
8.25965,48796
8.26702,49681
8.2744,48919
8.28177,48478
8.28915,51275
8.29653,61816
8.3039,73788
8.31128,88045
8.31865,113822
8.32603,117850
8.33342,86675
8.34078,80330
8.34817,110587
8.35553,151613
8.36292,307839
8.37028,713566
8.37767,838758
8.38505,534848
8.39242,459404
8.3998,467785
8.40717,244389
8.41455,136497
8.42193,105744
8.4293,87553
8.43668,107266
8.44405,191515
8.45143,376658
8.4588,442839
8.46618,269232
8.47357,229005
8.48093,406360
8.48832,398528
8.49568,191866
8.50307,97581
8.51045,91174
8.51782,86033
8.5252,86575
8.53257,111462
8.53995,130492
8.54732,108673
8.5547,91144
8.56208,102085
8.56945,195532
8.57683,336777
8.5842,269731
8.59158,126986
8.59897,88635
8.60633,91679
8.61372,103095
8.62108,121504
8.62847,113949
8.63583,96189
8.64322,71464
8.6506,60519
8.65797,63100
8.66535,95213
8.67272,141485
8.6801,159200
8.68748,125648
8.69485,108563
8.70223,120011
8.7096,127932
8.71698,181776
8.72435,220855
8.73173,162591
8.73912,115711
8.74648,93855
8.75387,80112
8.76123,79152
8.76862,84641
8.776,83789
8.78337,76147
8.79075,71457
8.79812,79047
8.8055,93572
8.81287,97865
8.82025,147149
8.82763,245070
8.835,306444
8.84238,290128
8.84975,252712
8.85713,273772
8.8645,252276
8.87188,161404
8.87927,104460
8.88663,130123
8.89402,177158
8.90138,195555
8.90877,203711
8.91615,156603
8.92352,146969
8.9309,164594
8.93827,152531
8.94565,158625
8.95302,174598
8.9604,182926
8.96778,225829
8.97515,189034
8.98253,130309
8.9899,242544
8.99728,519211
9.00467,514613
9.01203,271774
9.01942,200731
9.02678,178076
9.03417,164965
9.04153,187643
9.04892,174022
9.0563,106563
9.06367,72913
9.07105,83321
9.07842,127477
9.0858,169862
9.09318,138800
9.10055,124420
9.10793,151048
9.1153,145455
9.12268,144839
9.13005,231566
9.13743,354546
9.14482,276586
9.15218,147767
9.15957,166956
9.16693,221307
9.17432,205586
9.1817,146616
9.18907,127805
9.19645,145557
9.20382,129411
9.2112,153827
9.21857,212821
9.22595,195269
9.23333,122997
9.2407,77631
9.24808,73628
9.25545,89952
9.26283,147064
9.27022,191951
9.27758,234121
9.28497,374542
9.29233,523343
9.29972,410815
9.30708,187692
9.31447,170208
9.32185,295872
9.32922,290258
9.3366,157876
9.34397,131130
9.35135,181758
9.35873,221464
9.3661,158481
9.37348,105153
9.38085,107300
9.38823,126053
9.3956,137353
9.40298,140294
9.41037,186153
9.41773,217844
9.42512,170117
9.43248,153697
9.43987,271526
9.44723,1149805
9.45462,3202547
9.462,3663636
9.46937,1645733
9.47675,342938
9.48412,115232
9.4915,109182
9.49888,110799
9.50625,140924
9.51363,157615
9.521,126892
9.52838,103967
9.53575,99554
9.54313,93705
9.55052,90261
9.55788,92167
9.56527,90759
9.57263,88900
9.58002,91840
9.5874,95345
9.59477,85809
9.60215,78274
9.60952,163079
9.6169,761783
9.62427,1942454
9.63165,2107657
9.63903,847557
9.6464,231061
9.65378,123239
9.66115,132277
9.66853,139897
9.67592,125138
9.68328,104847
9.69067,96845
9.69803,103421
9.70542,115079
9.71278,113266
9.72017,112907
9.72755,99704
9.73492,88562
9.7423,115593
9.74967,168873
9.75705,180986
9.76443,120286
9.7718,79301
9.77918,71971
9.78655,71783
9.79393,80391
9.8013,92614
9.80868,102338
9.81607,108705
9.82343,116622
9.83082,109042
9.83818,95521
9.84557,117359
9.85295,152464
9.86032,129145
9.8677,93141
9.87507,91774
9.88245,98274
9.88982,100009
9.8972,102938
9.90458,114121
9.91195,126933
9.91933,141031
9.9267,131036
9.93408,112570
9.94147,110579
9.94883,109010
9.95622,105333
9.96358,109855
9.97097,102901
9.97833,99549
9.98572,85835
9.9931,75797
10.0005,87601
10.0079,109779
10.0152,109773
10.0226,98592
10.03,95314
10.0374,93053
10.0447,88978
10.0521,94403
10.0595,102830
10.0669,100375
10.0742,85069
10.0816,72828
10.089,72543
10.0964,88854
10.1037,106377
10.1111,104950
10.1185,89942
10.1259,91862
10.1333,87615
10.1406,77731
10.148,79346
10.1554,86483
10.1628,97376
10.1701,100819
10.1775,92384
10.1849,89752
10.1923,98983
10.1996,114118
10.207,113572
10.2144,121081
10.2218,131024
10.2291,113473
10.2365,92929
10.2439,92965
10.2513,116862
10.2587,155917
10.266,144176
10.2734,105705
10.2808,94993
10.2882,97287
10.2955,99590
10.3029,95668
10.3103,97926
10.3177,94768
10.325,101544
10.3324,149955
10.3398,223130
10.3472,201036
10.3545,245017
10.3619,481330
10.3693,516850
10.3767,279872
10.384,144779
10.3914,144065
10.3988,203940
10.4062,229151
10.4136,150134
10.4209,102128
10.4283,95613
10.4357,106056
10.4431,169529
10.4504,472139
10.4578,960846
10.4652,1114742
10.4726,679134
10.4799,254768
10.4873,122227
10.4947,105466
10.5021,98816
10.5094,99540
10.5168,105026
10.5242,108152
10.5316,122792
10.539,137004
10.5463,122247
10.5537,101314
10.5611,102192
10.5685,113687
10.5758,127083
10.5832,252753
10.5906,754458
10.598,1374665
10.6053,1081811
10.6127,439669
10.6201,382356
10.6275,742517
10.6348,731496
10.6422,358799
10.6496,143360
10.657,102924
10.6644,106825
10.6717,115322
10.6791,124094
10.6865,120973
10.6939,119238
10.7012,121587
10.7086,114976
10.716,112003
10.7234,111052
10.7307,107409
10.7381,97656
10.7455,88795
10.7529,93814
10.7602,159708
10.7676,360657
10.775,536207
10.7824,435295
10.7897,257817
10.7971,170358
10.8045,211412
10.8119,261614
10.8193,191988
10.8266,118864
10.834,94490
10.8414,90239
10.8488,92477
10.8561,95833
10.8635,95513
10.8709,90767
10.8783,87532
10.8856,93111
10.893,104700
10.9004,127015
10.9078,208410
10.9151,373758
10.9225,379069
10.9299,206629
10.9373,102847
10.9447,83855
10.952,82315
10.9594,80754
10.9668,79250
10.9742,80375
10.9815,80830
10.9889,72179
10.9963,68818
11.0037,74913
11.011,84738
11.0184,87867
11.0258,85324
11.0332,76715
11.0405,72549
11.0479,72007
11.0553,74179
11.0627,80951
11.0701,96740
11.0774,106713
11.0848,94695
11.0922,79249
11.0996,79964
11.1069,107024
11.1143,134715
11.1217,129971
11.1291,147590
11.1364,135155
11.1438,95406
11.1512,88779
11.1586,91703
11.1659,89911
11.1733,121235
11.1807,170332
11.1881,166999
11.1954,131230
11.2028,108847
11.2102,112551
11.2176,102121
11.225,79943
11.2323,76944
11.2397,92855
11.2471,96918
11.2545,81809
11.2618,71902
11.2692,77625
11.2766,102889
11.284,101477
11.2913,84794
11.2987,118805
11.3061,244797
11.3135,317580
11.3208,189392
11.3282,100663
11.3356,94887
11.343,103971
11.3504,98654
11.3577,117147
11.3651,112274
11.3725,81772
11.3799,65341
11.3872,66627
11.3946,78337
11.402,114509
11.4094,150400
11.4167,125103
11.4241,79916
11.4315,63930
11.4389,72214
11.4462,79773
11.4536,81764
11.461,118145
11.4684,185967
11.4758,190744
11.4831,198907
11.4905,300496
11.4979,283717
11.5053,149998
11.5126,99559
11.52,126814
11.5274,217758
11.5348,364853
11.5421,328755
11.5495,152628
11.5569,76674
11.5643,76400
11.5716,109778
11.579,120537
11.5864,91982
11.5938,74224
11.6012,72087
11.6085,75937
11.6159,71634
11.6233,65329
11.6307,64065
11.638,62909
11.6454,64177
11.6528,64025
11.6602,89302
11.6675,188449
11.6749,264767
11.6823,202273
11.6897,196687
11.697,284288
11.7044,227546
11.7118,106249
11.7192,65729
11.7265,62474
11.7339,64358
11.7413,61734
11.7487,57542
11.7561,56852
11.7634,57254
11.7708,56500
11.7782,57672
11.7856,60718
11.7929,84910
11.8003,131543
11.8077,178785
11.8151,203584
11.8224,162897
11.8298,141122
11.8372,168365
11.8446,128725
11.8519,80229
11.8593,66072
11.8667,74183
11.8741,70201
11.8815,61245
11.8888,64575
11.8962,69205
11.9036,70671
11.911,85392
11.9183,111306
11.9257,92806
11.9331,69637
11.9405,69022
11.9478,86826
11.9552,114406
11.9626,127698
11.97,125416
11.9773,142976
11.9847,161231
11.9921,149738
11.9995,128221
12.0069,92879
12.0142,86720
12.0216,106846
12.029,105830
12.0364,83659
12.0437,75090
12.0511,84257
12.0585,103451
12.0659,149433
12.0732,194953
12.0806,149693
12.088,98685
12.0954,106016
12.1027,134556
12.1101,153140
12.1175,139512
12.1249,125611
12.1322,131858
12.1396,140677
12.147,147664
12.1544,179467
12.1618,177700
12.1691,143645
12.1765,129390
12.1839,142701
12.1913,143930
12.1986,129953
12.206,135616
12.2134,171262
12.2208,180154
12.2281,123787
12.2355,86015
12.2429,81745
12.2503,98877
12.2576,112166
12.265,108933
12.2724,98167
12.2798,108319
12.2872,155593
12.2945,179857
12.3019,156781
12.3093,162386
12.3167,171615
12.324,160348
12.3314,135468
12.3388,104547
12.3462,93122
12.3535,91896
12.3609,92563
12.3683,94816
12.3757,90044
12.383,80510
12.3904,78161
12.3978,85800
12.4052,90642
12.4126,96957
12.4199,99628
12.4273,100994
12.4347,90485
12.4421,76764
12.4494,73968
12.4568,77348
12.4642,89909
12.4716,104770
12.4789,105181
12.4863,101703
12.4937,88569
12.5011,83170
12.5084,88037
12.5158,96501
12.5232,125481
12.5306,152408
12.5379,129913
12.5453,93425
12.5527,85500
12.5601,96437
12.5675,105922
12.5748,103119
12.5822,90829
12.5896,81260
12.597,78029
12.6043,80802
12.6117,86343
12.6191,83477
12.6265,79844
12.6338,84450
12.6412,108268
12.6486,133773
12.656,132302
12.6633,131184
12.6707,120103
12.6781,124341
12.6855,125422
12.6929,100125
12.7002,87905
12.7076,83475
12.715,89526
12.7224,109304
12.7297,121942
12.7371,129800
12.7445,148880
12.7519,145976
12.7592,130218
12.7666,136347
12.774,146423
12.7814,137396
12.7887,121671
12.7961,107850
12.8035,121735
12.8109,142011
12.8183,140479
12.8256,133452
12.833,149331
12.8404,168398
12.8478,170543
12.8551,144505
12.8625,145075
12.8699,169354
12.8773,151686
12.8846,150165
12.892,162506
12.8994,140488
12.9068,126447
12.9141,131445
12.9215,140008
12.9289,152871
12.9363,171813
12.9437,197338
12.951,173438
12.9584,146318
12.9658,147650
12.9732,141612
12.9805,118156
12.9879,113170
12.9953,122425
13.0027,130800
13.01,132018
13.0174,135013
13.0248,150876
13.0322,164609
13.0395,149320
13.0469,122781
13.0543,112499
13.0617,117189
13.069,120879
13.0764,126600
13.0838,152115
13.0912,185676
13.0986,167669
13.1059,129344
13.1133,109555
13.1207,98912
13.1281,98155
13.1354,103292
13.1428,112674
13.1502,128071
13.1576,138799
13.1649,143062
13.1723,140352
13.1797,133314
13.1871,144773
13.1944,136919
13.2018,106009
13.2092,96133
13.2166,103235
13.224,100573
13.2313,88340
13.2387,79570
13.2461,76966
13.2535,75681
13.2608,77876
13.2682,80766
13.2756,84994
13.283,86187
13.2903,86407
13.2977,84140
13.3051,84507
13.3125,92263
13.3198,106505
13.3272,107095
13.3346,91769
13.342,89588
13.3494,101196
13.3567,100753
13.3641,95452
13.3715,93827
13.3789,95332
13.3862,92017
13.3936,94965
13.401,116303
13.4084,133487
13.4157,113253
13.4231,94268
13.4305,93314
13.4379,92772
13.4452,85816
13.4526,84530
13.46,88720
13.4674,86516
13.4747,83469
13.4821,86902
13.4895,92406
13.4969,95308
13.5043,101340
13.5116,129752
13.519,180462
13.5264,171976
13.5338,119782
13.5411,95125
13.5485,86669
13.5559,80554
13.5633,73854
13.5706,80962
13.578,94086
13.5854,108362
13.5928,120073
13.6001,107004
13.6075,94078
13.6149,99534
13.6223,104137
13.6297,96720
13.637,84566
13.6444,76133
13.6518,72846
13.6592,74661
13.6665,78165
13.6739,78013
13.6813,81055
13.6887,88891
13.696,88852
13.7034,90838
13.7108,108824
13.7182,127140
13.7255,149362
13.7329,150010
13.7403,116303
13.7477,97102
13.7551,94573
13.7624,104742
13.7698,122525
13.7772,121701
13.7846,109809
13.7919,115310
13.7993,114411
13.8067,107484
13.8141,94792
13.8214,84345
13.8288,87686
13.8362,91111
13.8436,77242
13.8509,69144
13.8583,73691
13.8657,82274
13.8731,80772
13.8804,73087
13.8878,70108
13.8952,75025
13.9026,75809
13.91,76542
13.9173,77847
13.9247,82566
13.9321,86840
13.9395,95365
13.9468,101787
13.9542,88748
13.9616,73234
13.969,70178
13.9763,68679
13.9837,66296
13.9911,68129
13.9985,66758
14.0058,65125
14.0132,67917
14.0206,70357
14.028,71848
14.0354,72662
14.0427,71205
14.0501,77798
14.0575,86614
14.0649,80210
14.0722,69241
14.0796,66339
14.087,71834
14.0944,86808
14.1017,85071
14.1091,73593
14.1165,67494
14.1239,70652
14.1312,75733
14.1386,78068
14.146,74437
14.1534,70015
14.1608,66284
14.1681,67342
14.1755,65811
14.1829,62721
14.1903,61113
14.1976,62034
14.205,61285
14.2124,61228
14.2198,60778
14.2271,60616
14.2345,62045
14.2419,63198
14.2493,61001
14.2566,62705
14.264,62753
14.2714,62965
14.2788,62622
14.2861,63083
14.2935,74265
14.3009,112116
14.3083,148692
14.3157,126336
14.323,86372
14.3304,76494
14.3378,102000
14.3452,153124
14.3525,167289
14.3599,118944
14.3673,85911
14.3747,74735
14.382,71136
14.3894,71466
14.3968,83864
14.4042,108450
14.4115,120592
14.4189,98934
14.4263,80339
14.4337,72635
14.4411,67048
14.4484,67470
14.4558,68417
14.4632,71843
14.4706,84903
14.4779,107049
14.4853,121061
14.4927,111531
14.5001,98798
14.5074,112670
14.5148,124361
14.5222,98939
14.5296,75523
14.5369,72539
14.5443,78966
14.5517,82671
14.5591,71599
14.5665,66665
14.5738,67555
14.5812,69702
14.5886,72775
14.596,71696
14.6033,68594
14.6107,69573
14.6181,66464
14.6255,65571
14.6328,62286
14.6402,63987
14.6476,66480
14.655,67527
14.6623,66492
14.6697,68726
14.6771,75101
14.6845,75047
14.6919,73910
14.6992,71481
14.7066,69042
14.714,75729
14.7214,80038
14.7287,73167
14.7361,69045
14.7435,70426
14.7509,74490
14.7582,86157
14.7656,88318
14.773,77376
14.7804,71582
14.7877,69994
14.7951,69350
14.8025,63884
14.8099,63076
14.8172,60722
14.8246,64084
14.832,65752
14.8394,64983
14.8468,64044
14.8541,63922
14.8615,64800
14.8689,68741
14.8763,75350
14.8836,73118
14.891,67072
14.8984,66186
14.9058,67097
14.9131,65310
14.9205,66334
14.9279,66311
14.9353,63458
14.9426,62845
14.95,63726
14.9574,62598
14.9648,66680
14.9722,83427
14.9795,96815
14.9869,85920
14.9943,77508
15.0017,71295
15.009,71200
15.0164,72446
15.0238,83395
15.0312,103122
15.0385,97308
15.0459,80212
15.0533,83513
15.0607,89341
15.068,83521
15.0754,71727
15.0828,67075
15.0902,67723
15.0976,71156
15.1049,77819
15.1123,79858
15.1197,75329
15.1271,80034
15.1344,100107
15.1418,113401
15.1492,105596
15.1566,91565
15.1639,92149
15.1713,105726
15.1787,114518
15.1861,102964
15.1934,90954
15.2008,84430
15.2082,93309
15.2156,95632
15.2229,85955
15.2303,79011
15.2377,82404
15.2451,94652
15.2525,93883
15.2598,96354
15.2672,92019
15.2746,82243
15.282,74932
15.2893,73335
15.2967,73297
15.3041,75059
15.3115,83322
15.3188,88677
15.3262,79751
15.3336,74788
15.341,72350
15.3483,74619
15.3557,76669
15.3631,82749
15.3705,86037
15.3779,77966
15.3852,72839
15.3926,69285
15.4,66862
15.4074,65826
15.4147,67481
15.4221,70698
15.4295,72225
15.4369,77156
15.4442,78783
15.4516,75030
15.459,70176
15.4664,68522
15.4737,65656
15.4811,61740
15.4885,61685
15.4959,61149
15.5033,61898
15.5106,63140
15.518,64665
15.5254,62900
15.5328,64584
15.5401,63820
15.5475,61996
15.5549,61906
15.5623,60568
15.5696,60888
15.577,63806
15.5844,65992
15.5918,66039
15.5991,76181
15.6065,92046
15.6139,90662
15.6213,82482
15.6286,70992
15.636,64821
15.6434,63002
15.6508,62799
15.6582,63587
15.6655,62640
15.6729,62983
15.6803,62720
15.6877,65557
15.695,66940
15.7024,68256
15.7098,71500
15.7172,70586
15.7245,65631
15.7319,61905
15.7393,65235
15.7467,74564
15.754,79804
15.7614,75654
15.7688,70877
15.7762,66735
15.7836,64612
15.7909,67885
15.7983,69383
15.8057,73649
15.8131,70576
15.8204,67526
15.8278,67182
15.8352,68152
15.8426,70702
15.8499,74407
15.8573,70834
15.8647,68152
15.8721,69754
15.8794,70407
15.8868,69946
15.8942,72110
15.9016,69682
15.909,68435
15.9163,71114
15.9237,77405
15.9311,80668
15.9385,77770
15.9458,79133
15.9532,83622
15.9606,85204
15.968,86926
15.9753,84720
15.9827,85389
15.9901,83957
15.9975,82939
16.0048,80375
16.0122,82663
16.0196,86183
16.027,89059
16.0343,87207
16.0417,86553
16.0491,88056
16.0565,95470
16.0638,92373
16.0712,80608
16.0786,77043
16.086,75747
16.0934,75201
16.1007,79341
16.1081,82045
16.1155,78660
16.1229,78112
16.1302,85282
16.1376,94174
16.145,89867
16.1524,86006
16.1597,84772
16.1671,81302
16.1745,79472
16.1819,84107
16.1893,86962
16.1966,85692
16.204,80797
16.2114,77375
16.2188,78371
16.2261,79964
16.2335,77395
16.2409,74678
16.2482,76484
16.2556,77922
16.263,76504
16.2704,74303
16.2778,74429
16.2851,72643
16.2925,73998
16.2999,75370
16.3073,77067
16.3147,73450
16.322,73181
16.3294,72697
16.3368,76150
16.3441,78296
16.3515,77398
16.3589,76109
16.3663,73237
16.3737,73817
16.381,73232
16.3884,72012
16.3958,72051
16.4032,73050
16.4105,72794
16.4179,72743
16.4253,72649
16.4327,72129
16.44,73031
16.4474,73630
16.4548,73853
16.4622,76664
16.4696,80324
16.4769,83261
16.4843,87239
16.4917,86587
16.4991,85515
16.5064,83906
16.5138,83349
16.5212,80905
16.5286,81334
16.5359,81047
16.5433,82754
16.5507,85857
16.5581,84937
16.5654,87516
16.5728,87711
16.5802,87175
16.5876,89564
16.595,90297
16.6023,92852
16.6097,97796
16.6171,101275
16.6245,100790
16.6318,101337
16.6392,99426
16.6466,100139
16.6539,99849
16.6613,101260
16.6687,101875
16.6761,102980
16.6835,99564
16.6908,98261
16.6982,98583
16.7056,102623
16.713,105171
16.7204,105623
16.7277,105497
16.7351,108242
16.7425,112066
16.7498,109348
16.7572,106234
16.7646,103618
16.772,97465
16.7794,93143
16.7867,91807
16.7941,90862
16.8015,88094
16.8089,88436
16.8162,88304
16.8236,86446
16.831,87485
16.8384,86252
16.8457,84261
16.8531,84449
16.8605,82634
16.8679,81831
16.8753,81375
16.8826,78679
16.89,77985
16.8974,79182
16.9048,80755
16.9121,81205
16.9195,80473
16.9269,79603
16.9343,80629
16.9416,80552
16.949,80273
16.9564,80531
16.9638,82182
16.9711,80718
16.9785,81929
16.9859,82283
16.9933,80867
17.0007,80483
17.008,81571
17.0154,82984
17.0228,82599
17.0301,84179
17.0375,86691
17.0449,87338
17.0523,90086
17.0597,89570
17.067,88224
17.0744,87716
17.0818,88022
17.0892,88467
17.0965,89726
17.1039,90097
17.1113,88244
17.1187,83110
17.126,81156
17.1334,80071
17.1408,80286
17.1482,79940
17.1556,79263
17.1629,79652
17.1703,80844
17.1777,82131
17.1851,82163
17.1924,80812
17.1998,81467
17.2072,80994
17.2146,79875
17.2219,81571
17.2293,79936
17.2367,80562
17.2441,80723
17.2514,81246
17.2588,82705
17.2662,83331
17.2736,86486
17.281,89029
17.2883,85839
17.2957,83139
17.3031,83842
17.3104,84735
17.3178,85820
17.3252,83830
17.3326,86755
17.34,88440
17.3473,89590
17.3547,87435
17.3621,86252
17.3695,84999
17.3768,85470
17.3842,86455
17.3916,84893
17.399,84109
17.4064,81247
17.4137,82468
17.4211,82108
17.4285,81008
17.4358,83344
17.4432,83613
17.4506,82041
17.458,79821
17.4654,80703
17.4727,81068
17.4801,80204
17.4875,78897
