D:\Data GC-MS-77B\2017\MARCH\29-03-17\18293-17 2 LQ SKDM.D 29 Mar 17  02:37 pm
Start of data points
1.2938,12506
1.30055,12651
1.30728,13124
1.31403,19261
1.32077,37882
1.32752,236672
1.33427,1272892
1.341,2653061
1.34775,3186292
1.35448,3330728
1.36123,3406364
1.36797,3432878
1.37472,3422556
1.38147,3377532
1.3882,3313371
1.39495,3253177
1.40168,3198497
1.40843,3159839
1.41517,3108970
1.42192,3047459
1.42865,2986898
1.4354,2933159
1.44215,2869845
1.44888,2812194
1.45563,2743377
1.46237,2672542
1.46912,2584992
1.47585,2494724
1.4826,2404464
1.48935,2311501
1.5102,6872713
1.51758,6532211
1.52495,6183501
1.53233,5822917
1.53972,5491095
1.54708,5156589
1.55447,4836369
1.56183,4630148
1.56922,4722301
1.5766,5104331
1.58397,5496102
1.59135,5707114
1.59872,5731603
1.6061,5588196
1.61347,5361884
1.62085,5109584
1.62823,5007820
1.6356,5118510
1.64298,5339295
1.65035,5447000
1.65773,5473561
1.66512,5460439
1.67248,5378323
1.67987,5218670
1.68723,5043979
1.69462,4940689
1.70198,4947272
1.70937,4989966
1.71675,4952365
1.72412,4806449
1.7315,4588701
1.73887,4615534
1.74625,5272869
1.75362,6341002
1.761,7229128
1.76838,7648041
1.77575,7709455
1.78313,7445908
1.7905,6977442
1.79788,6477376
1.80527,5860274
1.81263,5261791
1.82002,4678730
1.82738,4116180
1.83477,3667638
1.84213,3324621
1.84952,3076084
1.8569,2973117
1.86427,3294542
1.87165,4536265
1.87902,7630214
1.8864,12876595
1.89378,19661342
1.90115,24615250
1.90853,26810044
1.9159,27515990
1.92328,27542430
1.93065,27164440
1.93803,26536706
1.94542,25821166
1.95278,25284444
1.96017,25119484
1.96753,25257588
1.97492,25037774
1.9823,24606094
1.98967,23830436
1.99705,22758298
2.00442,21604734
2.0118,20241532
2.01917,18749600
2.02655,17142472
2.03393,15566015
2.0413,14145333
2.04868,13445732
2.05605,13452160
2.06343,13653963
2.07082,13661583
2.07818,13408902
2.08557,12947142
2.09293,12428022
2.10032,11959877
2.10768,11554165
2.11507,11173151
2.12245,10741909
2.12982,10187477
2.1372,9671295
2.14457,9134370
2.15195,8551458
2.15933,7994388
2.1667,7464297
2.17408,6854422
2.18145,6219009
2.18883,5706953
2.1962,5634813
2.20358,5965502
2.21097,6370599
2.21833,6556350
2.22572,6487729
2.23308,6374643
2.24047,6627532
2.24785,7807279
2.25522,9924122
2.2626,11882914
2.26997,13081419
2.27735,13371473
2.28472,13033245
2.2921,12364718
2.29948,11374089
2.30685,10394834
2.31423,9317368
2.3216,8200266
2.32898,7141160
2.33635,6210793
2.34373,5290824
2.35112,4543537
2.35848,3856532
2.36587,3255077
2.37323,2801334
2.38062,2368349
2.388,2072053
2.39537,1797448
2.40275,1559249
2.41012,1353676
2.4175,1210499
2.42487,1219862
2.43225,1685500
2.43963,2673245
2.447,3789950
2.45438,4505675
2.46175,4818928
2.46913,4807133
2.47652,4604550
2.48388,4291709
2.49127,3990424
2.49863,3692511
2.50602,3733984
2.51338,4959427
2.52077,8139638
2.52815,12986192
2.53552,18361316
2.5429,22265722
2.55027,24128090
2.55765,25066020
2.56503,25360132
2.5724,25066742
2.57978,24359834
2.58715,23010104
2.59453,21453716
2.6019,20407346
2.60928,21014682
2.61667,22944440
2.62403,24503800
2.63142,25213780
2.63878,25602662
2.64617,26073372
2.65355,26015432
2.66092,25458698
2.6683,24291838
2.67567,22745116
2.68305,20973014
2.69042,19117886
2.6978,17666396
2.70518,16757023
2.71255,16327855
2.71993,16722330
2.7273,17910076
2.73468,18931492
2.74207,19381856
2.74943,19398572
2.75682,18844222
2.76418,18127758
2.77157,16823756
2.77893,15331965
2.78632,13582798
2.7937,11669003
2.80107,9966121
2.80845,8471325
2.81582,7268623
2.8232,6873399
2.83058,9275767
2.83795,14607670
2.84533,19255166
2.8527,21322782
2.86008,21904002
2.86745,21734996
2.87483,21134990
2.88222,20459854
2.88958,19978210
2.89697,19168860
2.90433,18022796
2.91172,16605819
2.91908,15104173
2.92647,13373728
2.93385,11724374
2.94122,10097598
2.9486,8817396
2.95597,7828091
2.96335,7310784
2.97073,6761445
2.9781,6168789
2.98548,5605758
2.99285,5490319
3.00023,5542938
3.0076,5436980
3.01498,5151064
3.02237,4648085
3.02973,4120037
3.03712,3585309
3.04448,3309399
3.05187,3298091
3.05925,3297627
3.06662,3392298
3.074,4220677
3.08137,6269933
3.08875,9425664
3.09612,12150878
3.1035,13311800
3.11088,13106818
3.11825,12301947
3.12563,11313562
3.133,9910434
3.14038,8884238
3.14777,8678760
3.15513,9212806
3.16252,9827227
3.16988,10930291
3.17727,12410287
3.18463,13435749
3.19202,13600215
3.1994,13684575
3.20677,13764041
3.21415,13241432
3.22152,12251703
3.2289,10938331
3.23628,9321557
3.24365,7775731
3.25103,6693597
3.2584,6515731
3.26578,7150973
3.27315,7641474
3.28053,7473838
3.28792,7015900
3.29528,6337070
3.30267,5548180
3.31003,4755106
3.31742,4070154
3.3248,3543991
3.33217,3174695
3.33955,2930528
3.34692,3161829
3.3543,4200314
3.36167,6164289
3.36905,7795985
3.37643,8360980
3.3838,8435723
3.39118,8075789
3.39855,7530223
3.40593,7043548
3.41332,7768583
3.42068,9613290
3.42807,11805473
3.43543,12846711
3.44282,13138473
3.45018,12926804
3.45757,12280478
3.46495,11710442
3.47232,11788032
3.4797,11961613
3.48707,11790009
3.49445,11144468
3.50182,10483661
3.5092,9859891
3.51658,9631319
3.52395,10174303
3.53133,11475875
3.5387,13335225
3.54608,15461601
3.55347,18829322
3.56083,26855746
3.56822,33515302
3.57558,36415456
3.58297,36466104
3.59033,35372068
3.59772,34362848
3.6051,33322818
3.61247,32355332
3.61985,31601918
3.62722,31153536
3.6346,31542676
3.64198,34510572
3.64935,38147420
3.65673,37683580
3.6641,34861844
3.67148,30479116
3.67885,26160790
3.68623,20923082
3.69362,15833165
3.70098,12059573
3.70837,11344610
3.71573,12501267
3.72312,13147669
3.7305,12516365
3.73787,11320399
3.74525,9463617
3.75262,7420216
3.76,5765221
3.76737,5058945
3.77475,4475864
3.78213,3934195
3.7895,3724518
3.79688,3730611
3.80425,4234827
3.81163,5877416
3.81902,7684130
3.82638,8341343
3.83377,8448076
3.84113,8917005
3.84852,9615110
3.85588,9932744
3.86327,9719172
3.87065,8731719
3.87802,7414767
3.8854,5975546
3.89277,5116641
3.90015,4861635
3.90753,5153767
3.9149,5667880
3.92228,8042685
3.92965,14640796
3.93703,20706794
3.9444,23704070
3.95178,23784266
3.95917,21637200
3.96653,18405402
3.97392,14655773
3.98128,11097125
3.98867,8095395
3.99605,6230880
4.00342,5187263
4.0108,5494703
4.01817,6989583
4.02555,8095445
4.03292,7907603
4.0403,6740871
4.04768,5819993
4.05505,5711943
4.06243,6613005
4.0698,7751701
4.07718,7979919
4.08455,7307088
4.09193,6334911
4.09932,5257385
4.10668,4490642
4.11407,4207760
4.12143,4010427
4.12882,3538492
4.1362,2886963
4.14357,2422861
4.15095,2201560
4.15832,2016827
4.1657,1843689
4.17307,1649919
4.18045,1536058
4.18783,1957695
4.1952,3242594
4.20258,4448334
4.20995,5131788
4.21733,5827526
4.22472,5799644
4.23208,5167887
4.23947,4248353
4.24683,3649224
4.25422,3411249
4.26158,3811267
4.26897,5054330
4.27635,6420133
4.28372,6874781
4.2911,6492151
4.29847,5962768
4.30585,5333392
4.31323,4564776
4.3206,3998499
4.32798,3988508
4.33535,4448862
4.34273,5594234
4.3501,8581050
4.35748,12117931
4.36487,13765239
4.37223,13625749
4.37962,12202094
4.38698,10422023
4.39437,8851812
4.40175,7570997
4.40912,6186397
4.4165,5120128
4.42387,4353001
4.43125,4002085
4.43862,3853862
4.446,3809712
4.45338,4042812
4.46075,4294097
4.46813,4302566
4.4755,4030303
4.48288,3654964
4.49027,3247561
4.49763,3042593
4.50502,2959886
4.51238,2851166
4.51977,2715289
4.52713,2681096
4.53452,2680999
4.5419,2729374
4.54927,2935336
4.55665,3041047
4.56402,3161029
4.5714,3374801
4.57878,3604740
4.58615,3577369
4.59353,3439701
4.6009,3439176
4.60828,3751400
4.61565,4133025
4.62303,4267408
4.63042,4388005
4.63778,4545220
4.64517,4552319
4.65253,4673848
4.65992,4742117
4.66728,4658424
4.67467,5002990
4.68205,9926832
4.68942,21767478
4.6968,29785020
4.70417,33135264
4.71155,34769164
4.71893,35728632
4.7263,36172180
4.73368,36472188
4.74105,36619632
4.74843,36683252
4.7558,36087956
4.76318,34096352
4.77057,29888024
4.77793,23915950
4.78532,23463010
4.79268,29309552
4.80007,34146916
4.80745,36983760
4.81482,37371876
4.8222,36615524
4.82957,35858992
4.83695,35187956
4.84432,34266592
4.8517,33604236
4.85908,32741032
4.86645,31977016
4.87383,31443784
4.8812,34291412
4.88858,7880510
4.89597,5589491
4.90333,4392820
4.91072,6384053
4.91808,6095062
4.92547,3666631
4.93283,3406913
4.94022,3356612
4.9476,3143117
4.95497,2054918
4.96235,1585917
4.96972,2672816
4.9771,3909911
4.98448,4777497
4.99185,5863259
4.99923,6092028
5.0066,5766963
5.01398,5423732
5.02135,5693027
5.02873,5830859
5.03612,5226117
5.04348,4414230
5.05087,3877345
5.05823,3345906
5.06562,3187542
5.073,4230038
5.08037,12219423
5.08775,25268382
5.09512,32851678
5.1025,36497528
5.10987,37571952
5.11725,36960816
5.12463,36104964
5.132,35663220
5.13938,35478064
5.14675,35019164
5.15413,6178388
5.16152,2110596
5.16888,1635875
5.17627,1764512
5.18363,2058884
5.19102,1471312
5.19838,1032406
5.20577,1131836
5.21315,1312550
5.22052,2196385
5.2279,2644687
5.23527,2257474
5.24265,2175713
5.25002,3606339
5.2574,5351963
5.26478,3923805
5.27215,2952784
5.27953,3642780
5.2869,3705345
5.29428,3085671
5.30167,2055058
5.30903,1214608
5.31642,1056853
5.32378,1639732
5.33117,2463187
5.33853,3845279
5.34592,4693328
5.3533,4132201
5.36067,2758463
5.36805,1695173
5.37542,1330751
5.3828,1369788
5.39018,1427624
5.39755,1706888
5.40493,2996082
5.4123,4817269
5.41968,6246832
5.42705,7224959
5.43443,6404320
5.44182,4904594
5.44918,6605371
5.45657,14695890
5.46393,21191336
5.47132,20981208
5.4787,14238327
5.48607,8157999
5.49345,5384586
5.50082,4021136
5.5082,2986870
5.51557,3417493
5.52295,5676778
5.53033,8075379
5.5377,7772909
5.54508,5813278
5.55245,4586179
5.55983,4102572
5.56722,3210579
5.57458,2108698
5.58197,1536606
5.58933,1774684
5.59672,2903436
5.60408,3983271
5.61147,4011305
5.61885,3486898
5.62622,3012490
5.6336,2590324
5.64097,2102700
5.64835,1844881
5.65573,1843473
5.6631,1870693
5.67048,1797778
5.67785,1864869
5.68523,2077029
5.6926,2220478
5.69998,2138436
5.70737,1930389
5.71473,1739260
5.72212,1720160
5.72948,1980333
5.73687,2264214
5.74425,2139258
5.75162,1692715
5.759,1313895
5.76637,1265682
5.77375,1783517
5.78112,3007542
5.7885,7399352
5.79588,17427066
5.80325,25776592
5.81063,28973052
5.818,29360060
5.82538,27755978
5.83277,23415824
5.84013,14812128
5.84752,6794814
5.85488,4072513
5.86227,4474714
5.86963,6325824
5.87702,9291621
5.8844,17411384
5.89177,28962060
5.89915,33650076
5.90652,36306644
5.9139,38195132
5.92127,37445840
5.92865,35964688
5.93603,35011192
5.9434,34593828
5.95078,35722648
5.95815,36432636
5.96553,27206784
5.97292,4634096
5.98028,17280704
5.98767,30021122
5.99503,33702864
6.00242,36416584
6.00978,36537200
6.01717,36283736
6.02455,9686342
6.03192,2288846
6.0393,3388497
6.04667,3792582
6.05405,2870096
6.06143,2200837
6.0688,2243943
6.07618,2055205
6.08355,1262510
6.09093,812650
6.0983,848995
6.10568,2335375
6.11307,11205540
6.12043,25016030
6.12782,32945430
6.13518,36629744
6.14257,36745620
6.14995,28982590
6.15732,5324318
6.1647,2600328
6.17207,2282927
6.17945,2423062
6.18682,2527003
6.1942,2195557
6.20158,1754222
6.20895,1487081
6.21633,1525197
6.2237,1589069
6.23108,1590157
6.23847,1715925
6.24583,2135962
6.25322,2723777
6.26058,6725764
6.26797,18858738
6.27533,29334586
6.28272,34642052
6.2901,36989948
6.29747,36611980
6.30485,36627848
6.31222,35438984
6.3196,34197616
6.32698,33294862
6.33435,33302176
6.34173,15929831
6.3491,2754376
6.35648,3151537
6.36385,3050885
6.37123,1850212
6.37862,1020961
6.38598,683271
6.39337,831618
6.40073,1333343
6.40812,1579102
6.4155,1215133
6.42287,1588916
6.43025,5208145
6.43762,10114313
6.445,7579136
6.45237,3717136
6.45975,3974894
6.46713,7235036
6.4745,10542137
6.48188,7113563
6.48925,2576828
6.49663,1641102
6.504,1913625
6.51138,2149762
6.51877,2643395
6.52613,3318906
6.53352,2359596
6.54088,1757835
6.54827,2266407
6.55565,3730794
6.56302,2840099
6.5704,2139862
6.57777,2536093
6.58515,3140559
6.59252,8815314
6.5999,19698864
6.60728,27049328
6.61465,29671774
6.62203,33552792
6.6294,37091052
6.63678,37254656
6.64417,24635000
6.65153,2947710
6.65892,1522126
6.66628,1759580
6.67367,2983085
6.68103,4241075
6.68842,3403725
6.6958,2242041
6.70317,2387162
6.71055,3136644
6.71792,3538441
6.7253,3592733
6.73268,3847793
6.74005,2430356
6.74743,1585051
6.7548,1645886
6.76218,4615568
6.76955,15338420
6.77693,26037614
6.78432,27469760
6.79168,12390391
6.79907,1701511
6.80643,736298
6.81382,837903
6.8212,902117
6.82857,830553
6.83595,964807
6.84332,1535525
6.8507,1846236
6.85807,1662487
6.86545,2563320
6.87283,4423076
6.8802,6510965
6.88758,12297252
6.89495,21049674
6.90233,25948012
6.90972,27728206
6.91708,30742890
6.92447,33630228
6.93183,30843084
6.93922,12795252
6.94658,5425667
6.95397,13154416
6.96135,24406282
6.96872,30309056
6.9761,30016926
6.98347,24649148
6.99085,26503210
6.99823,33770640
7.0056,36332072
7.01298,25059254
7.02035,3564643
7.02773,1960875
7.0351,3620485
7.04248,7021195
7.04987,6696586
7.05723,2719989
7.06462,1707597
7.07198,3766229
7.07937,7106224
7.08673,10021209
7.09412,17623394
7.1015,22811686
7.10887,16251454
7.11625,3441914
7.12362,1010026
7.131,788288
7.13838,699879
7.14575,705676
7.15313,948308
7.1605,1292424
7.16788,1511390
7.17525,1516162
7.18263,1739924
7.19002,5769440
7.19738,16986248
7.20477,26348720
7.21213,29908268
7.21952,26496342
7.2269,25249048
7.23427,30180874
7.24165,24298154
7.24902,4698641
7.2564,1369636
7.26377,2930420
7.27115,6439210
7.27853,7986334
7.2859,11635179
7.29328,23361462
7.30065,32641226
7.30803,35321860
7.31542,28934104
7.32278,6013385
7.33017,7528724
7.33753,13401086
7.34492,12642049
7.35228,4529025
7.35967,1707328
7.36705,4688335
7.37442,10234169
7.3818,11881686
7.38917,8214003
7.39655,3157155
7.40393,1266792
7.4113,1065804
7.41868,1211514
7.42605,1599195
7.43343,2008644
7.4408,2308334
7.44818,3645979
7.45557,4647259
7.46293,3002465
7.47032,1883407
7.47768,3367560
7.48507,5402553
7.49245,3838434
7.49982,1763913
7.5072,1359984
7.51457,3495320
7.52195,11539722
7.52932,19026614
7.5367,15259163
7.54408,4857409
7.55145,2651137
7.55883,2847692
7.5662,2551008
7.57358,2141787
7.58097,1242607
7.58833,867189
7.59572,1670490
7.60308,2656047
7.61047,3770200
7.61783,10638159
7.62522,22660110
7.6326,29254572
7.63997,26412044
7.64735,9229965
7.65472,1384860
7.6621,2911555
7.66947,12683854
7.67685,25150412
7.68423,32017688
7.6916,31577286
7.69898,12415181
7.70635,1186873
7.71373,752709
7.72112,939484
7.72848,1238781
7.73587,1555478
7.74323,1755873
7.75062,1673785
7.75798,2259944
7.76537,2076320
7.77275,1170692
7.78012,931795
7.7875,1081383
7.79487,1132782
7.80225,1268482
7.80963,1445652
7.817,2614393
7.82438,6638388
7.83175,9004420
7.83913,4755423
7.8465,1655325
7.85388,1013906
7.86127,1034717
7.86863,2206045
7.87602,5856002
7.88338,16211132
7.89077,24528690
7.89815,18850524
7.90552,12022895
7.9129,10530283
7.92027,5068180
7.92765,3556697
7.93502,5181950
7.9424,4253146
7.94978,2701002
7.95715,2624790
7.96453,2573650
7.9719,1729218
7.97928,4328388
7.98667,10588059
7.99403,12527919
8.00142,13654034
8.00878,20389766
8.01617,24635942
8.02353,24498426
8.03092,19095790
8.0383,11995593
8.04567,8529493
8.05305,3699440
8.06042,2271006
8.0678,4401893
8.07518,7318138
8.08255,6946926
8.08993,5607240
8.0973,7139341
8.10468,6261141
8.11205,4449008
8.11943,4261755
8.12682,5649203
8.13418,5738944
8.14157,4372933
8.14893,4153345
8.15632,4149644
8.1637,5354048
8.17107,4206232
8.17845,1501246
8.18582,615327
8.1932,756397
8.20057,2182581
8.20795,4408544
8.21533,5079959
8.2227,8081317
8.23008,9749970
8.23745,5607175
8.24483,1718162
8.2522,550758
8.25958,397050
8.26697,414254
8.27433,421357
8.28172,429667
8.28908,401738
8.29647,470224
8.30385,788865
8.31122,1143745
8.3186,1397079
8.32597,2207441
8.33335,2875221
8.34072,1878215
8.3481,1468874
8.35548,2614784
8.36285,3678282
8.37023,7461349
8.3776,17220400
8.38498,24059528
8.39237,25046980
8.39973,17964258
8.40712,7173103
8.41448,3474278
8.42187,2649617
8.42923,1504243
8.43662,1241144
8.444,2272206
8.45137,5458522
8.45875,10200161
8.46612,10514938
8.4735,5280319
8.48088,5835107
8.48825,10084913
8.49563,7286067
8.503,2329967
8.51038,870186
8.51775,791572
8.52513,817274
8.53252,1034421
8.53988,1295566
8.54727,1114359
8.55463,758028
8.56202,807511
8.5694,1703679
8.57677,4749625
8.58415,6365218
8.59152,3371035
8.5989,973953
8.60627,673071
8.61365,719344
8.62103,883363
8.6284,904033
8.63578,812032
8.64315,571524
8.65053,427225
8.65792,407775
8.66528,701301
8.67267,1495312
8.68003,2176769
8.68742,1579500
8.69478,862466
8.70217,848605
8.70955,1010825
8.71692,1337866
8.7243,1960693
8.73167,1551162
8.73905,911559
8.74643,711008
8.7538,564205
8.76118,539277
8.76855,638956
8.77593,642389
8.7833,477935
8.79068,344888
8.79807,356334
8.80543,463011
8.81282,489270
8.82018,798541
8.82757,1788534
8.83493,3020705
8.84232,3622678
8.8497,2989318
8.85707,2676140
8.86445,2637325
8.87182,1566592
8.8792,674716
8.88658,601895
8.89395,956400
8.90133,1158902
8.9087,1293356
8.91608,1057294
8.92345,832455
8.93083,939032
8.93822,915797
8.94558,923840
8.95297,1051820
8.96033,1123486
8.96772,1288506
8.9751,1182841
8.98247,762415
8.98985,1256573
8.99722,3552916
9.0046,4690437
9.01197,2575649
9.01935,1302824
9.02673,1037997
9.0341,854947
9.04148,984127
9.04885,1183400
9.05623,779944
9.06362,380078
9.07098,416967
9.07837,710744
9.08573,1077564
9.09312,983459
9.10048,788349
9.10787,941594
9.11525,968048
9.12262,822039
9.13,1223339
9.13737,2259508
9.14475,2194273
9.15213,1207620
9.1595,949114
9.16688,1323956
9.17425,1371064
9.18163,932373
9.189,623524
9.19638,736498
9.20377,703811
9.21113,609233
9.21852,884818
9.22588,1045739
9.23327,749256
9.24065,379205
9.24802,274678
9.2554,325443
9.26277,522491
9.27015,810115
9.27752,1044519
9.2849,1905460
9.29228,3774991
9.29965,4121287
9.30703,2086131
9.3144,850881
9.32178,1266683
9.32917,1642014
9.33653,974331
9.34392,606374
9.35128,1070407
9.35867,1587321
9.36603,1047426
9.37342,460789
9.3808,386728
9.38817,430235
9.39555,503258
9.40292,535586
9.4103,637646
9.41767,859084
9.42505,756370
9.43243,565757
9.4398,755566
9.44718,2210371
9.45455,7849185
9.46193,15264760
9.46932,13681024
9.47668,4669476
9.48407,680664
9.49143,325991
9.49882,322160
9.50618,406104
9.51357,530139
9.52095,430820
9.52832,322094
9.5357,291835
9.54307,247597
9.55045,212395
9.55783,223068
9.5652,231732
9.57258,219554
9.57995,214937
9.58733,233947
9.5947,226587
9.60208,193597
9.60947,311442
9.61683,1542615
9.62422,5565681
9.63158,8435158
9.63897,5141262
9.64635,1300702
9.65372,370262
9.6611,362846
9.66847,405735
9.67585,394338
9.68322,316781
9.6906,261198
9.69798,247187
9.70535,262199
9.71273,251046
9.7201,231784
9.72748,211679
9.73487,201070
9.74223,273913
9.74962,331238
9.75698,329847
9.76437,260562
9.77173,178515
9.77912,145056
9.7865,143446
9.79387,165922
9.80125,184641
9.80862,209278
9.816,289716
9.82338,342221
9.83075,262241
9.83813,187877
9.8455,235333
9.85288,316976
9.86025,268584
9.86763,186831
9.87502,177893
9.88238,214138
9.88977,234124
9.89713,233390
9.90452,233664
9.9119,244705
9.91927,263950
9.92665,251761
9.93402,247069
9.9414,274544
9.94877,227482
9.95615,188297
9.96353,180491
9.9709,166920
9.97828,158511
9.98565,140788
9.99303,140556
10.0004,199302
10.0078,272904
10.0152,256375
10.0225,209167
10.0299,179435
10.0373,158650
10.0447,147312
10.0521,195254
10.0594,284110
10.0668,259661
10.0742,160104
10.0816,115832
10.0889,117277
10.0963,137434
10.1037,149226
10.1111,133084
10.1184,126245
10.1258,127959
10.1332,116445
10.1406,103499
10.1479,106269
10.1553,119545
10.1627,135472
10.1701,147063
10.1774,145012
10.1848,135180
10.1922,123221
10.1996,126137
10.207,134780
10.2143,178749
10.2217,237478
10.2291,202792
10.2365,149353
10.2438,146401
10.2512,262199
10.2586,538032
10.266,510996
10.2733,257056
10.2807,140409
10.2881,128348
10.2955,141797
10.3028,142512
10.3102,126822
10.3176,119386
10.325,139135
10.3324,238862
10.3397,369102
10.3471,332263
10.3545,350919
10.3619,688031
10.3692,772902
10.3766,395459
10.384,189927
10.3914,208361
10.3987,302601
10.4061,340191
10.4135,227541
10.4209,129795
10.4282,127191
10.4356,151264
10.443,233191
10.4504,678076
10.4578,1483160
10.4651,1643382
10.4725,1060588
10.4799,414184
10.4873,172433
10.4946,141812
10.502,128662
10.5094,122446
10.5168,115890
10.5241,114511
10.5315,140602
10.5389,156054
10.5463,139634
10.5536,127000
10.561,127988
10.5684,118539
10.5758,130411
10.5832,331758
10.5905,1155483
10.5979,2205693
10.6053,1959240
10.6127,826780
10.62,515893
10.6274,1026196
10.6348,1102436
10.6422,494015
10.6495,172042
10.6569,129762
10.6643,135939
10.6717,148831
10.679,171912
10.6864,182205
10.6938,148025
10.7012,116501
10.7085,107929
10.7159,113141
10.7233,114286
10.7307,125620
10.7381,129369
10.7454,113157
10.7528,119983
10.7602,209571
10.7676,529525
10.7749,832400
10.7823,737485
10.7897,420584
10.7971,274665
10.8044,317741
10.8118,367208
10.8192,274080
10.8266,151554
10.8339,112715
10.8413,102386
10.8487,100359
10.8561,105416
10.8635,117683
10.8708,132090
10.8782,119085
10.8856,100403
10.893,106435
10.9003,148519
10.9077,304487
10.9151,608704
10.9225,631255
10.9298,312467
10.9372,127942
10.9446,90958
10.952,92944
10.9593,102600
10.9667,100976
10.9741,96326
10.9815,94282
10.9889,89011
10.9962,88047
11.0036,96828
11.011,105153
11.0184,105927
11.0257,97989
11.0331,86318
11.0405,82598
11.0479,82180
11.0552,86473
11.0626,93771
11.07,99033
11.0774,103636
11.0847,105615
11.0921,98608
11.0995,121527
11.1069,249171
11.1142,365795
11.1216,311371
11.129,337045
11.1364,318210
11.1438,187046
11.1511,121758
11.1585,117958
11.1659,118534
11.1733,150992
11.1806,216147
11.188,220764
11.1954,200969
11.2028,197885
11.2101,226512
11.2175,207995
11.2249,137560
11.2323,116119
11.2396,139625
11.247,152572
11.2544,125767
11.2618,103250
11.2692,110249
11.2765,152401
11.2839,158581
11.2913,123282
11.2987,172157
11.306,376392
11.3134,482711
11.3208,290996
11.3282,137421
11.3355,132318
11.3429,147304
11.3503,145428
11.3577,173504
11.365,166340
11.3724,116637
11.3798,87139
11.3872,86008
11.3946,108071
11.4019,174986
11.4093,250774
11.4167,207909
11.4241,117257
11.4314,90733
11.4388,120540
11.4462,139581
11.4536,130819
11.4609,168084
11.4683,278325
11.4757,326294
11.4831,344688
11.4904,522525
11.4978,524755
11.5052,273167
11.5126,153611
11.5199,182482
11.5273,336824
11.5347,615836
11.5421,571512
11.5495,254930
11.5568,116093
11.5642,105316
11.5716,139811
11.579,169716
11.5863,146738
11.5937,118234
11.6011,109216
11.6085,108441
11.6158,106651
11.6232,105409
11.6306,119666
11.638,124228
11.6453,111857
11.6527,110550
11.6601,139026
11.6675,289444
11.6749,453486
11.6822,369519
11.6896,328354
11.697,460875
11.7044,361607
11.7117,166501
11.7191,93506
11.7265,83789
11.7339,82185
11.7412,81392
11.7486,80749
11.756,80626
11.7634,79084
11.7707,77052
11.7781,79086
11.7855,86084
11.7929,130809
11.8003,225550
11.8076,309019
11.815,324065
11.8224,248598
11.8298,219962
11.8371,266691
11.8445,207489
11.8519,120616
11.8593,100404
11.8666,117187
11.874,114085
11.8814,90017
11.8888,89573
11.8961,95880
11.9035,103938
11.9109,160399
11.9183,255603
11.9256,202258
11.933,113504
11.9404,103267
11.9478,142867
11.9552,214621
11.9625,255819
11.9699,237916
11.9773,248746
11.9847,280066
11.992,238743
11.9994,191806
12.0068,137529
12.0142,127988
12.0215,169500
12.0289,166487
12.0363,124782
12.0437,103152
12.051,117729
12.0584,150957
12.0658,236510
12.0732,325009
12.0806,236524
12.0879,136859
12.0953,131956
12.1027,167769
12.1101,196309
12.1174,178015
12.1248,157110
12.1322,168457
12.1396,189745
12.1469,211000
12.1543,279182
12.1617,293457
12.1691,233170
12.1764,173183
12.1838,169417
12.1912,167176
12.1986,148524
12.206,158071
12.2133,200518
12.2207,205827
12.2281,141135
12.2355,96554
12.2428,102255
12.2502,135902
12.2576,164124
12.265,160195
12.2723,141269
12.2797,150018
12.2871,233598
12.2945,286876
12.3018,238133
12.3092,204920
12.3166,207647
12.324,178532
12.3314,139279
12.3387,116688
12.3461,112428
12.3535,109919
12.3609,104954
12.3682,105883
12.3756,104927
12.383,95231
12.3904,94725
12.3977,107681
12.4051,123920
12.4125,123460
12.4199,120920
12.4272,112442
12.4346,97825
12.442,83649
12.4494,84262
12.4567,88459
12.4641,113986
12.4715,143127
12.4789,136194
12.4863,121164
12.4936,103876
12.501,94952
12.5084,99371
12.5158,99737
12.5231,113377
12.5305,129308
12.5379,109844
12.5453,83648
12.5526,81087
12.56,89917
12.5674,101694
12.5748,97086
12.5821,82553
12.5895,73729
12.5969,75484
12.6043,85595
12.6117,96312
12.619,93660
12.6264,83238
12.6338,90386
12.6412,133692
12.6485,174536
12.6559,159828
12.6633,145848
12.6707,138755
12.678,162829
12.6854,161048
12.6928,105250
12.7002,76419
12.7075,74737
12.7149,84657
12.7223,113604
12.7297,136352
12.7371,141607
12.7444,149087
12.7518,144616
12.7592,131186
12.7666,157893
12.7739,194590
12.7813,184806
12.7887,134838
12.7961,116146
12.8034,142468
12.8108,174455
12.8182,156130
12.8256,124929
12.8329,127761
12.8403,150965
12.8477,160528
12.8551,138304
12.8624,136984
12.8698,159060
12.8772,142982
12.8846,138495
12.892,155189
12.8993,136319
12.9067,120113
12.9141,123376
12.9215,133403
12.9288,152052
12.9362,178418
12.9436,188472
12.951,160660
12.9583,124242
12.9657,123108
12.9731,130484
12.9805,115292
12.9878,105257
12.9952,114110
13.0026,120174
13.01,122358
13.0174,133244
13.0247,147802
13.0321,147413
13.0395,131183
13.0469,106729
13.0542,99732
13.0616,107142
13.069,110549
13.0764,112567
13.0837,133305
13.0911,161119
13.0985,149296
13.1059,120296
13.1132,98648
13.1206,83894
13.128,82800
13.1354,93116
13.1428,115016
13.1501,137529
13.1575,138414
13.1649,131274
13.1723,124681
13.1796,111298
13.187,110572
13.1944,106248
13.2018,93428
13.2091,87624
13.2165,90346
13.2239,88820
13.2313,78205
13.2386,71837
13.246,68873
13.2534,69690
13.2608,71461
13.2681,72346
13.2755,76283
13.2829,79312
13.2903,81403
13.2977,81230
13.305,77859
13.3124,84533
13.3198,98394
13.3272,98917
13.3345,85288
13.3419,86322
13.3493,95491
13.3567,93878
13.364,86879
13.3714,82829
13.3788,86578
13.3862,84679
13.3935,90002
13.4009,122840
13.4083,151767
13.4157,124505
13.4231,96308
13.4304,91689
13.4378,88549
13.4452,80553
13.4526,76565
13.4599,82130
13.4673,87153
13.4747,91875
13.4821,103552
13.4894,103526
13.4968,99140
13.5042,98001
13.5116,123547
13.5189,161327
13.5263,152837
13.5337,111082
13.5411,89295
13.5485,85107
13.5558,76829
13.5632,71842
13.5706,76669
13.578,86357
13.5853,103744
13.5927,114981
13.6001,104879
13.6075,91990
13.6148,99482
13.6222,100440
13.6296,92585
13.637,83329
13.6443,75902
13.6517,74172
13.6591,77293
13.6665,78838
13.6738,78890
13.6812,80715
13.6886,86226
13.696,85706
13.7034,89530
13.7107,105797
13.7181,120168
13.7255,137462
13.7329,137861
13.7402,109187
13.7476,96580
13.755,96285
13.7624,106023
13.7697,119051
13.7771,114941
13.7845,105615
13.7919,110610
13.7992,115262
13.8066,104930
13.814,91641
13.8214,85147
13.8288,90076
13.8361,91115
13.8435,82042
13.8509,75208
13.8583,82437
13.8656,93093
13.873,87108
13.8804,78450
13.8878,75822
13.8951,78232
13.9025,81674
13.9099,83690
13.9173,86107
13.9246,86453
13.932,92144
13.9394,100160
13.9468,102595
13.9542,90847
13.9615,79685
13.9689,76176
13.9763,75526
13.9837,73363
13.991,72857
13.9984,73627
14.0058,70778
14.0132,71306
14.0205,74663
14.0279,75920
14.0353,79854
14.0427,81366
14.05,87709
14.0574,92943
14.0648,85251
14.0722,75719
14.0796,72914
14.0869,85204
14.0943,106094
14.1017,106601
14.1091,82918
14.1164,74702
14.1238,78048
14.1312,82201
14.1386,81706
14.1459,78579
14.1533,74467
14.1607,73123
14.1681,74551
14.1754,74038
14.1828,70838
14.1902,68994
14.1976,68457
14.2049,69371
14.2123,69824
14.2197,68138
14.2271,67763
14.2345,67364
14.2418,68787
14.2492,67543
14.2566,67374
14.264,68672
14.2713,69878
14.2787,70644
14.2861,69341
14.2935,77778
14.3008,110227
14.3082,140356
14.3156,119302
14.323,85740
14.3303,78775
14.3377,99847
14.3451,136510
14.3525,142951
14.3599,109053
14.3672,84875
14.3746,77212
14.382,75124
14.3894,74923
14.3967,92207
14.4041,124103
14.4115,127473
14.4189,102279
14.4262,84285
14.4336,74525
14.441,71617
14.4484,70978
14.4557,70029
14.4631,75075
14.4705,92097
14.4779,115927
14.4853,129985
14.4926,121750
14.5,98163
14.5074,112348
14.5148,115039
14.5221,94877
14.5295,78104
14.5369,75720
14.5443,85148
14.5516,88347
14.559,79075
14.5664,74208
14.5738,75753
14.5811,76981
14.5885,80000
14.5959,78105
14.6033,72399
14.6106,72105
14.618,71201
14.6254,71102
14.6328,68566
14.6402,68577
14.6475,72196
14.6549,72688
14.6623,73283
14.6697,74885
14.677,76992
14.6844,77768
14.6918,74619
14.6992,74194
14.7065,77879
14.7139,91305
14.7213,95311
14.7287,82618
14.736,75698
14.7434,74497
14.7508,78504
14.7582,92376
14.7656,96432
14.7729,82686
14.7803,76408
14.7877,74580
14.7951,75682
14.8024,71798
14.8098,69543
14.8172,69321
14.8246,71765
14.8319,73736
14.8393,73652
14.8467,70271
14.8541,68596
14.8614,70290
14.8688,74290
14.8762,78588
14.8836,76186
14.891,71161
14.8983,68902
14.9057,69201
14.9131,70035
14.9205,70894
14.9278,72113
14.9352,70850
14.9426,68997
14.95,67830
14.9573,69104
14.9647,72600
14.9721,82938
14.9795,93419
14.9868,83787
14.9942,76382
15.0016,72270
15.009,73064
15.0163,72762
15.0237,82489
15.0311,96616
15.0385,91787
15.0459,79577
15.0532,80443
15.0606,87715
15.068,81302
15.0754,71986
15.0827,68141
15.0901,68362
15.0975,72558
15.1049,80526
15.1122,81504
15.1196,75823
15.127,79637
15.1344,97723
15.1417,111228
15.1491,101006
15.1565,89743
15.1639,87399
15.1713,97837
15.1786,104221
15.186,95233
15.1934,81066
15.2008,75903
15.2081,80394
15.2155,82444
15.2229,76704
15.2303,75112
15.2376,79133
15.245,86102
15.2524,91732
15.2598,95289
15.2671,93100
15.2745,81626
15.2819,75574
15.2893,73596
15.2967,70441
15.304,72032
15.3114,75118
15.3188,77007
15.3262,74253
15.3335,70978
15.3409,72810
15.3483,76340
15.3557,77521
15.363,84125
15.3704,89008
15.3778,82788
15.3852,78484
15.3925,77060
15.3999,75583
15.4073,73377
15.4147,76532
15.422,79582
15.4294,80784
15.4368,84951
15.4442,84312
15.4516,78786
15.4589,75519
15.4663,74997
15.4737,74581
15.4811,72979
15.4884,72532
15.4958,72316
15.5032,74899
15.5106,73746
15.5179,73761
15.5253,75900
15.5327,75402
15.5401,75800
15.5474,74670
15.5548,73769
15.5622,73882
15.5696,73031
15.577,75838
15.5843,76721
15.5917,77154
15.5991,81344
15.6065,90284
15.6138,90758
15.6212,84667
15.6286,80659
15.636,77386
15.6433,75784
15.6507,75516
15.6581,76960
15.6655,76737
15.6728,76569
15.6802,75295
15.6876,75725
15.695,78389
15.7024,79884
15.7097,82454
15.7171,78660
15.7245,74758
15.7319,73594
15.7392,75914
15.7466,85225
15.754,92037
15.7614,86310
15.7687,81915
15.7761,77402
15.7835,75237
15.7909,74080
15.7982,76437
15.8056,79596
15.813,76964
15.8204,75465
15.8278,75891
15.8351,75960
15.8425,78860
15.8499,78040
15.8573,78160
15.8646,76514
15.872,77365
15.8794,77510
15.8868,75976
15.8941,75913
15.9015,76091
15.9089,76159
15.9163,77499
15.9236,77865
15.931,79178
15.9384,78091
15.9458,81124
15.9531,81036
15.9605,77609
15.9679,75711
15.9753,77910
15.9827,78149
15.99,77923
15.9974,76823
16.0048,79023
16.0121,80044
16.0195,82153
16.0269,82863
16.0343,81065
16.0417,80490
16.049,82530
16.0564,83614
16.0638,82361
16.0712,79866
16.0785,77615
16.0859,76919
16.0933,76585
16.1007,77421
16.108,77290
16.1154,78752
16.1228,79102
16.1302,79178
16.1376,83073
16.1449,81910
16.1523,81760
16.1597,82943
16.1671,80865
16.1744,81500
16.1818,82476
16.1892,86365
16.1966,87403
16.2039,86056
16.2113,81921
16.2187,80795
16.2261,80667
16.2335,80918
16.2408,80747
16.2482,81766
16.2556,80654
16.263,79587
16.2703,79723
16.2777,79886
16.2851,79738
16.2924,79859
16.2998,82076
16.3072,83637
16.3146,80634
16.322,80521
16.3293,80976
16.3367,82654
16.3441,83141
16.3515,84607
16.3588,85111
16.3662,82641
16.3736,83881
16.381,82262
16.3883,81349
16.3957,81529
16.4031,80388
16.4105,80237
16.4179,80732
16.4252,80723
16.4326,81652
16.44,80291
16.4474,78968
16.4547,80724
16.4621,83141
16.4695,81198
16.4769,80906
16.4842,81743
16.4916,81105
16.499,82346
16.5064,81404
16.5138,80852
16.5211,81335
16.5285,80460
16.5359,80815
16.5433,80218
16.5506,80236
16.558,81828
16.5654,82213
16.5727,81723
16.5801,82352
16.5875,82804
16.5949,82701
16.6023,82884
16.6096,82199
16.617,84646
16.6244,83729
16.6318,85110
16.6392,84285
16.6465,85847
16.6539,88475
16.6613,85959
16.6687,84406
16.676,82903
16.6834,83809
16.6908,82826
16.6981,83592
16.7055,84076
16.7129,84734
16.7203,84580
16.7277,84970
16.735,85194
16.7424,88175
16.7498,88686
16.7572,88032
16.7645,88540
16.7719,89342
16.7793,87471
16.7867,86786
16.794,85418
16.8014,84523
16.8088,85160
16.8162,86037
16.8236,84386
16.8309,85206
16.8383,85274
16.8457,85286
16.8531,85695
16.8604,86056
16.8678,88244
16.8752,83915
16.8826,85371
16.8899,85290
16.8973,84305
16.9047,86697
16.9121,84489
16.9195,85195
16.9268,85388
16.9342,85433
16.9416,85778
16.949,85196
16.9563,86247
16.9637,86280
16.9711,86082
16.9784,86532
16.9858,86029
16.9932,86150
17.0006,88397
17.008,88429
17.0153,89795
17.0227,89239
17.0301,89490
17.0375,88756
17.0449,90746
17.0522,92070
17.0596,89649
17.067,90689
17.0743,88634
17.0817,90725
17.0891,92155
17.0965,91096
17.1039,93230
17.1112,92096
17.1186,90311
17.126,90892
17.1334,89094
17.1407,89551
17.1481,90848
17.1555,91120
17.1629,89811
17.1702,89888
17.1776,89495
17.185,88917
17.1924,89392
17.1998,89780
17.2071,88221
17.2145,89317
17.2219,89712
17.2293,89464
17.2366,90799
17.244,90435
17.2514,91703
17.2587,90841
17.2661,90559
17.2735,91962
17.2809,92971
17.2883,92742
17.2956,94674
17.303,95658
17.3104,98944
17.3178,98775
17.3252,99663
17.3325,102513
17.3399,105377
17.3473,104863
17.3546,106589
17.362,105892
17.3694,106232
17.3768,107940
17.3842,109113
17.3915,110696
17.3989,112367
17.4063,109578
17.4137,110525
17.421,108582
17.4284,108583
17.4358,109869
17.4432,111751
17.4506,109915
17.4579,106665
17.4653,105748
17.4727,106801
17.4801,106354
17.4874,104787
