D:\Data GC-MS-77B\2017\MARCH\30-03-17\18509-17-YA.D 30 Mar 17  01:41 pm
Start of data points
1.2937,14012
1.30045,14399
1.30718,15015
1.31393,21653
1.32067,713548
1.32742,3496779
1.33415,4729955
1.3409,4538765
1.34765,4542873
1.35438,4594001
1.36113,4648473
1.36787,4704403
1.37462,4730748
1.38135,4742277
1.3881,4782114
1.39485,4815444
1.40158,4873240
1.40833,4909332
1.41507,4931439
1.42182,4957595
1.42855,4985806
1.4353,5018932
1.44203,5028648
1.44878,5037534
1.45553,5058547
1.46227,5053374
1.46902,5055035
1.47575,5047995
1.4825,5033509
1.48923,4999033
1.5101,14222117
1.51748,13872410
1.52485,13471332
1.53223,12930658
1.5396,12346490
1.54698,11726109
1.55437,11177089
1.56173,10824011
1.56912,10531288
1.57648,10235429
1.58387,9989565
1.59125,9766383
1.59862,9631720
1.606,9514089
1.61337,9416283
1.62075,9379001
1.62812,9324106
1.6355,9237339
1.64288,9083262
1.65025,8963419
1.65763,8831267
1.665,8666872
1.67238,8458390
1.67977,8219569
1.68713,7981117
1.69452,7732266
1.70188,7440110
1.70927,7139422
1.71663,6871709
1.72402,6533697
1.7314,6201077
1.73877,5892031
1.74615,5557042
1.75352,5248460
1.7609,4926304
1.76828,4631443
1.77565,4331060
1.78303,4057396
1.7904,3800260
1.79778,3534366
1.80515,3283871
1.81253,3066230
1.81992,2850200
1.82728,2651135
1.83467,2460765
1.84203,2287764
1.84942,2117531
1.8568,1964661
1.86417,1832996
1.87155,1713393
1.87892,1611476
1.8863,1501974
1.89367,1448950
1.90105,1378749
1.90843,1276025
1.9158,1191341
1.92318,1096135
1.93055,1021933
1.93793,943305
1.94532,886483
1.95268,829573
1.96007,771259
1.96743,714027
1.97482,659801
1.98218,611640
1.98957,570064
1.99695,529634
2.00432,488353
2.0117,457987
2.01907,424996
2.02645,395558
2.03383,370160
2.0412,358382
2.04858,345703
2.05595,321492
2.06333,302618
2.0707,286754
2.07808,271105
2.08547,261857
2.09283,249577
2.10022,238594
2.10758,225029
2.11497,213410
2.12233,201607
2.12972,190148
2.1371,179946
2.14447,171388
2.15185,163043
2.15922,154187
2.1666,143087
2.17398,134995
2.18135,128103
2.18873,129633
2.1961,124865
2.20348,118616
2.21085,111365
2.21823,106024
2.22562,103455
2.23298,104356
2.24037,110988
2.24773,118236
2.25512,117621
2.2625,112079
2.26987,107902
2.27725,100841
2.28462,96592
2.292,92589
2.29937,88176
2.30675,83354
2.31413,78065
2.3215,74216
2.32888,71677
2.33625,67342
2.34363,64920
2.35102,63100
2.35838,60217
2.36577,59899
2.37313,58792
2.38052,56756
2.38788,54694
2.39527,55216
2.40265,53656
2.41002,55097
2.4174,60027
2.42477,73252
2.43215,80745
2.43953,82673
2.4469,79282
2.45428,77259
2.46165,74124
2.46903,72419
2.4764,70215
2.48378,67789
2.49117,66767
2.49853,71877
2.50592,127420
2.51328,208473
2.52067,251040
2.52805,273555
2.53542,265549
2.5428,258496
2.55017,250662
2.55755,238451
2.56492,216338
2.5723,198321
2.57968,181112
2.58705,160057
2.59443,157672
2.6018,184085
2.60918,195463
2.61657,180856
2.62393,164763
2.63132,150750
2.63868,139184
2.64607,129027
2.65343,119122
2.66082,108953
2.6682,99945
2.67557,93726
2.68295,90352
2.69032,93220
2.6977,93860
2.70507,111597
2.71245,181567
2.71983,238518
2.7272,240543
2.73458,226701
2.74195,217190
2.74933,209702
2.75672,190316
2.76408,177512
2.77147,160687
2.77883,137733
2.78622,121865
2.79358,107614
2.80097,95801
2.80835,87286
2.81572,90731
2.8231,126273
2.83047,161891
2.83785,163039
2.84523,155045
2.8526,146956
2.85998,141636
2.86735,141283
2.87473,144193
2.8821,137691
2.88948,126681
2.89687,117361
2.90423,112916
2.91162,104962
2.91898,96326
2.92637,89270
2.93375,82036
2.94112,76970
2.9485,75378
2.95587,73696
2.96325,69499
2.97062,64585
2.978,65002
2.98538,67552
2.99275,67692
3.00013,66131
3.0075,62544
3.01488,61371
3.02227,58437
3.02963,56917
3.03702,57709
3.04438,57336
3.05177,56256
3.05913,56315
3.06652,62204
3.0739,76800
3.08127,95531
3.08865,101301
3.09602,97794
3.1034,92758
3.11078,85903
3.11815,80143
3.12553,76141
3.1329,78810
3.14028,87048
3.14765,91704
3.15503,94353
3.16242,113892
3.16978,128222
3.17717,126901
3.18453,118496
3.19192,118488
3.1993,118494
3.20667,112743
3.21405,101245
3.22142,87902
3.2288,80166
3.23617,73776
3.24355,69709
3.25093,73256
3.2583,79348
3.26568,78346
3.27305,76765
3.28043,71320
3.2878,69177
3.29518,65326
3.30257,61877
3.30993,60009
3.31732,58735
3.32468,57955
3.33207,56513
3.33945,64564
3.34682,105357
3.3542,164322
3.36157,178069
3.36895,167618
3.37632,157378
3.3837,141848
3.39108,125333
3.39845,117197
3.40583,130054
3.4132,154674
3.42058,162747
3.42797,151069
3.43533,140849
3.44272,131526
3.45008,123540
3.45747,129397
3.46483,155215
3.47222,160680
3.4796,148580
3.48697,136396
3.49435,122791
3.50172,109667
3.5091,103902
3.51648,135521
3.52385,176876
3.53123,185442
3.5386,197160
3.54598,235851
3.55335,737888
3.56073,2647359
3.56812,4372107
3.57548,4455935
3.58287,4003599
3.59023,3496565
3.59762,2843438
3.605,2324444
3.61237,1775843
3.61975,1371373
3.62712,1054456
3.6345,796085
3.64187,611758
3.64925,457982
3.65663,345870
3.664,264975
3.67138,204354
3.67875,167726
3.68613,149972
3.69352,134388
3.70088,120132
3.70827,114227
3.71563,105039
3.72302,95395
3.73038,84947
3.73777,75839
3.74515,67532
3.75252,62747
3.7599,60754
3.76727,61253
3.77465,62002
3.78203,62743
3.7894,67626
3.79678,79700
3.80415,85176
3.81153,83941
3.8189,87818
3.82628,95642
3.83367,96052
3.84103,94914
3.84842,90995
3.85578,84267
3.86317,78717
3.87053,71531
3.87792,68370
3.8853,69390
3.89267,70284
3.90005,73412
3.90742,90259
3.9148,161564
3.92218,233443
3.92955,236298
3.93693,218593
3.9443,189331
3.95168,157415
3.95905,129002
3.96643,103627
3.97382,90044
3.98118,80014
3.98857,75051
3.99593,77067
4.00332,86307
4.0107,91291
4.01807,85632
4.02545,80248
4.03282,74904
4.0402,74465
4.04757,77805
4.05495,81514
4.06233,79921
4.0697,76878
4.07708,72924
4.08445,68937
4.09183,67695
4.09922,67200
4.10658,68747
4.11397,66449
4.12133,64144
4.12872,61571
4.13608,59791
4.14347,58332
4.15085,58383
4.15822,57774
4.1656,55364
4.17297,56463
4.18035,64557
4.18773,72944
4.1951,75050
4.20248,75137
4.20985,72158
4.21723,67488
4.2246,63617
4.23198,61636
4.23937,62065
4.24673,65869
4.25412,73451
4.26148,80909
4.26887,82842
4.27625,80212
4.28362,75838
4.291,70814
4.29837,68509
4.30575,63176
4.31312,65204
4.3205,69505
4.32788,75130
4.33525,87209
4.34263,113088
4.35,127518
4.35738,120811
4.36477,108238
4.37213,93130
4.37952,83183
4.38688,77700
4.39427,75107
4.40163,68907
4.40902,66057
4.4164,66869
4.42377,67641
4.43115,69453
4.43852,69468
4.4459,67371
4.45327,68390
4.46065,66722
4.46803,64885
4.4754,61870
4.48278,62270
4.49015,63042
4.49753,64231
4.50492,62526
4.51228,61766
4.51967,60136
4.52703,60881
4.53442,61535
4.54178,62840
4.54917,64544
4.55655,65650
4.56392,67504
4.5713,68010
4.57867,66025
4.58605,64061
4.59343,69818
4.6008,75066
4.60818,75440
4.61555,73957
4.62293,73186
4.6303,70811
4.63768,71792
4.64507,74519
4.65243,73687
4.65982,70155
4.66718,80354
4.67457,300736
4.68195,1235702
4.68932,2368819
4.6967,2502357
4.70407,1884997
4.71145,1181111
4.71882,646555
4.7262,359219
4.73358,204609
4.74095,127157
4.74833,91725
4.7557,93459
4.76308,402294
4.77047,2551555
4.77783,6891025
4.78522,9818050
4.79258,8828361
4.79997,6122685
4.80733,3526041
4.81472,1846846
4.8221,927236
4.82947,474632
4.83685,260986
4.84422,158044
4.8516,115051
4.85898,97684
4.86635,95245
4.87373,90840
4.8811,79579
4.88848,73113
4.89585,69735
4.90323,68231
4.91062,65107
4.91798,59371
4.92537,58252
4.93273,57793
4.94012,61486
4.9475,62832
4.95487,69135
4.96225,76536
4.96962,78116
4.977,77619
4.98437,76096
4.99175,76139
4.99913,76239
5.0065,72579
5.01388,71417
5.02125,69799
5.02863,70999
5.03602,84693
5.04338,98882
5.05077,139997
5.05813,623513
5.06552,2455738
5.07288,4547628
5.08027,4151930
5.08765,2629950
5.09502,1359416
5.1024,681199
5.10977,418681
5.11715,323950
5.12452,216081
5.1319,130807
5.13928,83923
5.14665,67851
5.15403,61515
5.1614,58205
5.16878,55111
5.17617,53032
5.18353,56743
5.19092,58445
5.19828,61852
5.20567,61819
5.21303,59748
5.22042,59424
5.2278,63293
5.23517,67206
5.24255,65998
5.24992,60044
5.2573,60387
5.26468,62127
5.27205,61608
5.27943,59244
5.2868,55554
5.29418,52852
5.30155,52550
5.30893,53058
5.31632,56833
5.32368,63444
5.33107,65709
5.33843,62366
5.34582,57391
5.3532,54353
5.36057,54953
5.36795,54395
5.37532,53549
5.3827,54670
5.39007,61249
5.39745,67694
5.40483,73683
5.4122,78038
5.41958,73990
5.42695,65861
5.43433,87616
5.44172,181481
5.44908,266106
5.45647,238819
5.46383,151285
5.47122,96958
5.47858,74996
5.48597,65375
5.49335,59429
5.50072,62151
5.5081,72848
5.51547,86481
5.52285,85022
5.53023,72597
5.5376,67605
5.54498,67326
5.55235,63215
5.55973,58303
5.5671,56169
5.57448,56101
5.58187,62366
5.58923,68650
5.59662,68254
5.60398,61683
5.61137,59988
5.61875,58284
5.62612,55964
5.6335,53578
5.64087,54882
5.64825,54471
5.65562,54726
5.663,54574
5.67038,55724
5.67775,56950
5.68513,58718
5.6925,58942
5.69988,58358
5.70725,57555
5.71463,57045
5.72202,60865
5.72938,59442
5.73677,56488
5.74413,53162
5.75152,55902
5.7589,64665
5.76627,78318
5.77365,100873
5.78102,285561
5.7884,791598
5.79577,1022808
5.80315,639830
5.81053,262373
5.8179,125400
5.82528,97796
5.83265,95680
5.84003,119118
5.84742,113043
5.85478,85457
5.86217,125024
5.86953,624603
5.87692,2338853
5.88428,3703597
5.89167,3076819
5.89905,2305973
5.90642,1737482
5.9138,906428
5.92117,314434
5.92855,119785
5.93593,81380
5.9433,153695
5.95068,582895
5.95805,1515427
5.96543,1779236
5.9728,955309
5.98018,317116
5.98757,114803
5.99493,75620
6.00232,69603
6.00968,67964
6.01707,67913
6.02445,64906
6.03182,64551
6.0392,64827
6.04657,62635
6.05395,58881
6.06132,55821
6.0687,54189
6.07608,56894
6.08345,92285
6.09083,380012
6.0982,1101595
6.10558,1375757
6.11297,820272
6.12033,288428
6.12772,116485
6.13508,75390
6.14247,66853
6.14983,69654
6.15722,68153
6.1646,66192
6.17197,62503
6.17935,59149
6.18672,59329
6.1941,61917
6.20148,69311
6.20885,69920
6.21623,71918
6.2236,70821
6.23098,67707
6.23835,188158
6.24573,1431941
6.25312,4958887
6.26048,6810883
6.26787,4165347
6.27523,1294892
6.28262,341016
6.28998,123664
6.29737,79238
6.30475,71711
6.31212,64145
6.3195,60679
6.32687,61534
6.33425,61961
6.34163,60786
6.349,53576
6.35638,49442
6.36375,48162
6.37113,48527
6.3785,50975
6.38588,51050
6.39327,50066
6.40063,49435
6.40802,67117
6.41538,100026
6.42277,100114
6.43015,74224
6.43752,65466
6.4449,71393
6.45227,97122
6.45965,106175
6.46702,74574
6.4744,55550
6.48178,51418
6.48915,52458
6.49653,55329
6.5039,58252
6.51128,52207
6.51867,49533
6.52603,51230
6.53342,57670
6.54078,55974
6.54817,58883
6.55553,73315
6.56292,112677
6.5703,186198
6.57767,188726
6.58505,351340
6.59242,1114902
6.5998,1586951
6.60718,1043505
6.61455,334213
6.62193,96104
6.6293,60796
6.63668,55616
6.64405,55439
6.65143,53062
6.65882,58292
6.66618,65606
6.67357,64221
6.68093,57449
6.68832,57600
6.6957,63581
6.70307,65185
6.71045,63536
6.71782,64571
6.7252,56966
6.73257,54261
6.73995,64965
6.74733,177560
6.7547,532656
6.76208,747530
6.76945,435434
6.77683,148337
6.78422,61404
6.79158,47964
6.79897,48266
6.80633,47222
6.81372,46548
6.82108,48533
6.82847,51483
6.83585,49932
6.84322,51468
6.8506,68988
6.85797,95303
6.86535,98796
6.87273,154999
6.8801,299797
6.88748,363288
6.89485,537028
6.90223,725262
6.9096,459800
6.91698,192244
6.92437,101191
6.93173,131159
6.93912,306806
6.94648,420130
6.95387,422066
6.96125,338673
6.96862,411758
6.976,654735
6.98337,537076
6.99075,236752
6.99812,102566
7.0055,69133
7.01288,63142
7.02025,89226
7.02763,100744
7.035,76949
7.04238,56050
7.04975,59367
7.05713,88234
7.06452,102567
7.07188,119701
7.07927,228792
7.08663,258672
7.09402,141824
7.1014,67953
7.10877,51922
7.11615,47111
7.12352,45513
7.1309,46434
7.13827,51728
7.14565,60094
7.15303,59314
7.1604,55768
7.16778,54669
7.17515,104284
7.18253,321047
7.18992,493517
7.19728,354000
7.20467,354901
7.21203,483823
7.21942,289140
7.22678,95021
7.23417,53570
7.24155,60890
7.24892,106004
7.2563,142258
7.26367,148202
7.27105,346210
7.27843,736590
7.2858,634997
7.29318,225627
7.30055,81510
7.30793,119665
7.3153,234761
7.32268,249988
7.33007,131980
7.33743,63318
7.34482,55183
7.35218,75725
7.35957,108169
7.36695,136771
7.37432,125167
7.3817,76950
7.38907,55273
7.39645,51112
7.40382,50601
7.4112,51636
7.41858,55417
7.42595,63673
7.43333,73975
7.4407,81821
7.44808,77650
7.45547,63348
7.46283,58208
7.47022,73562
7.47758,78865
7.48497,62561
7.49233,52996
7.49972,54346
7.5071,90352
7.51447,180986
7.52185,201557
7.52922,111976
7.5366,67627
7.54398,64585
7.55135,60663
7.55873,57461
7.5661,50423
7.57348,49529
7.58085,53814
7.58823,57521
7.59562,59452
7.60298,99636
7.61037,262522
7.61773,410715
7.62512,252038
7.63248,87556
7.63987,50242
7.64725,69427
7.65462,223040
7.662,495007
7.66937,439685
7.67675,173065
7.68413,63573
7.6915,49656
7.69888,46296
7.70625,46260
7.71363,48322
7.721,50803
7.72838,52242
7.73577,52288
7.74313,52239
7.75052,55691
7.75788,53288
7.76527,50431
7.77265,49975
7.78002,47213
7.7874,47844
7.79477,50147
7.80215,52838
7.80952,65276
7.8169,96747
7.82428,94634
7.83165,62036
7.83903,51462
7.8464,49280
7.85378,54299
7.86117,69303
7.86853,129140
7.87592,270868
7.88328,277924
7.89067,175019
7.89803,133279
7.90542,85074
7.9128,63100
7.92017,72062
7.92755,72959
7.93492,62394
7.9423,56080
7.94968,58239
7.95705,52980
7.96443,50203
7.9718,75175
7.97918,105938
7.98655,126154
7.99393,223692
8.00132,323865
8.00868,289026
8.01607,185857
8.02343,108081
8.03082,112291
8.0382,103483
8.04557,61323
8.05295,53123
8.06032,64828
8.0677,84403
8.07507,77966
8.08245,64783
8.08983,79705
8.0972,80684
8.10458,71415
8.11195,70157
8.11933,75526
8.12672,74915
8.13408,71417
8.14147,70426
8.14883,68876
8.15622,70644
8.16358,57200
8.17097,43465
8.17835,40874
8.18572,40724
8.1931,43333
8.20047,49475
8.20785,67563
8.21523,96583
8.2226,81925
8.22998,53936
8.23735,43723
8.24473,40775
8.2521,40440
8.25948,39586
8.26687,39600
8.27423,39697
8.28162,39627
8.28898,41813
8.29637,44274
8.30373,45106
8.31112,50524
8.3185,58680
8.32587,58997
8.33325,49530
8.34062,48267
8.348,56798
8.35538,74020
8.36275,155027
8.37013,359288
8.3775,398668
8.38488,214562
8.39225,130600
8.39963,111062
8.40702,71008
8.41438,59125
8.42177,52644
8.42913,49912
8.43652,57397
8.4439,80260
8.45127,117984
8.45865,122770
8.46602,89843
8.4734,96906
8.48077,134046
8.48815,117781
8.49553,68509
8.5029,48744
8.51028,47125
8.51765,45979
8.52503,47211
8.53242,49619
8.53978,50763
8.54717,46677
8.55453,46494
8.56192,49306
8.56928,68143
8.57667,90154
8.58405,72170
8.59142,50459
8.5988,44902
8.60617,45572
8.61355,47941
8.62093,49875
8.6283,49979
8.63568,46128
8.64305,43005
8.65043,43036
8.6578,44383
8.66518,49576
8.67257,56939
8.67993,58982
8.68732,51055
8.69468,48706
8.70207,50609
8.70945,51331
8.71682,60925
8.7242,64038
8.73157,53287
8.73895,48731
8.74632,45344
8.7537,44855
8.76108,44742
8.76845,45816
8.77583,45096
8.7832,42905
8.79058,43344
8.79797,44642
8.80533,45334
8.81272,45749
8.82008,57111
8.82747,72881
8.83483,81154
8.84222,78026
8.8496,71972
8.85697,79533
8.86435,74865
8.87172,60492
8.8791,54079
8.88647,60594
8.89385,69882
8.90123,73190
8.9086,73901
8.91598,65339
8.92335,66687
8.93073,98733
8.93812,198192
8.94548,471752
8.95287,767547
8.96023,548460
8.96762,300801
8.97498,197059
8.98237,147470
8.98975,152238
8.99712,189599
9.0045,168323
9.01187,123349
9.01925,108642
9.02663,104233
9.034,99915
9.04138,102529
9.04875,92478
9.05613,77544
9.0635,72061
9.07088,75525
9.07827,84737
9.08563,89741
9.09302,82638
9.10038,80960
9.10777,84661
9.11515,82778
9.12252,83416
9.1299,99293
9.13727,118608
9.14465,102268
9.15202,80193
9.1594,85393
9.16678,94979
9.17415,92218
9.18153,82763
9.1889,79327
9.19628,81460
9.20367,77035
9.21103,88365
9.21842,100782
9.22578,91563
9.23317,74970
9.24053,66011
9.24792,66716
9.2553,72869
9.26267,86257
9.27005,94595
9.27742,107594
9.2848,146163
9.29218,180936
9.29955,141885
9.30693,89734
9.3143,93707
9.32168,115735
9.32905,108348
9.33643,85054
9.34382,88913
9.35118,114718
9.35857,132285
9.36593,97675
9.37332,77248
9.3807,79425
9.38807,84114
9.39545,85695
9.40282,88012
9.4102,103369
9.41757,113668
9.42495,97071
9.43233,97942
9.4397,180546
9.44708,654437
9.45445,1717007
9.46183,1689927
9.4692,708621
9.47658,168339
9.48397,89909
9.49133,85676
9.49872,83900
9.50608,95358
9.51347,101271
9.52085,86348
9.52822,81260
9.5356,78455
9.54297,73142
9.55035,70897
9.55772,72140
9.5651,73226
9.57248,68577
9.57985,65442
9.58723,65486
9.5946,65439
9.60198,62412
9.60937,117113
9.61673,470351
9.62412,1109520
9.63148,1069387
9.63887,433791
9.64623,127717
9.65362,79521
9.661,81328
9.66837,85244
9.67575,80352
9.68312,69145
9.6905,65359
9.69788,69613
9.70525,73867
9.71263,70763
9.72,70102
9.72738,65171
9.73475,63698
9.74213,79162
9.74952,99118
9.75688,101201
9.76427,73472
9.77163,57076
9.77902,53199
9.7864,55951
9.79377,61584
9.80115,70070
9.80852,71774
9.8159,79349
9.82327,86118
9.83065,75283
9.83803,66240
9.8454,85344
9.85278,104334
9.86015,84998
9.86753,65685
9.87492,67693
9.88228,75704
9.88967,76793
9.89703,78316
9.90442,83523
9.91178,93261
9.91917,96129
9.92655,92786
9.93392,82307
9.9413,84402
9.94867,80408
9.95605,78251
9.96343,79466
9.9708,76540
9.97818,74420
9.98555,64655
9.99293,60879
10.0003,70110
10.0077,84596
10.0151,85912
10.0224,74800
10.0298,73051
10.0372,71398
10.0446,69551
10.0519,70908
10.0593,78297
10.0667,75478
10.0741,66458
10.0815,60071
10.0888,62345
10.0962,73401
10.1036,80875
10.111,77657
10.1183,71653
10.1257,70464
10.1331,65290
10.1405,61746
10.1478,63261
10.1552,69932
10.1626,74432
10.17,74785
10.1773,71597
10.1847,71287
10.1921,74711
10.1995,83510
10.2069,83837
10.2142,90278
10.2216,98715
10.229,84934
10.2364,70161
10.2437,71332
10.2511,84129
10.2585,103662
10.2659,95074
10.2732,74147
10.2806,70090
10.288,71714
10.2954,70471
10.3027,69356
10.3101,68928
10.3175,70042
10.3249,73492
10.3323,104339
10.3396,139335
10.347,123006
10.3544,149885
10.3618,265112
10.3691,271309
10.3765,149518
10.3839,92005
10.3913,99195
10.3986,131072
10.406,131370
10.4134,93707
10.4208,71672
10.4281,70208
10.4355,73881
10.4429,105379
10.4503,236062
10.4577,421278
10.465,453876
10.4724,289953
10.4798,129210
10.4872,78413
10.4945,72270
10.5019,69442
10.5093,70257
10.5167,74846
10.524,78770
10.5314,87854
10.5388,92332
10.5462,80395
10.5535,71374
10.5609,70813
10.5683,75991
10.5757,82977
10.583,137370
10.5904,338877
10.5978,563043
10.6052,426811
10.6126,187624
10.6199,184113
10.6273,317094
10.6347,285659
10.6421,153933
10.6494,80432
10.6568,69826
10.6642,73048
10.6716,80200
10.6789,86994
10.6863,85285
10.6937,80503
10.7011,76498
10.7084,74994
10.7158,73018
10.7232,72256
10.7306,71010
10.738,66627
10.7453,63037
10.7527,68901
10.7601,94850
10.7675,162719
10.7748,206906
10.7822,171407
10.7896,113019
10.797,89990
10.8043,102171
10.8117,114366
10.8191,90982
10.8265,70081
10.8338,63298
10.8412,61040
10.8486,62348
10.856,65042
10.8634,64920
10.8707,62982
10.8781,78241
10.8855,104799
10.8929,106820
10.9002,94556
10.9076,106913
10.915,154561
10.9224,146398
10.9297,92737
10.9371,64743
10.9445,61721
10.9519,66300
10.9592,80015
10.9666,95050
10.974,103791
10.9814,104276
10.9887,104642
10.9961,105658
11.0035,111621
11.0109,119805
11.0183,121011
11.0256,120794
11.033,119212
11.0404,119843
11.0478,123709
11.0551,126135
11.0625,124149
11.0699,126406
11.0773,116181
11.0846,87518
11.092,62895
11.0994,59018
11.1068,64047
11.1141,69226
11.1215,68082
11.1289,72492
11.1363,68734
11.1437,57542
11.151,54941
11.1584,57304
11.1658,56695
11.1732,66500
11.1805,79638
11.1879,78266
11.1953,68490
11.2027,62058
11.21,60153
11.2174,57077
11.2248,51615
11.2322,52291
11.2395,56997
11.2469,57174
11.2543,51838
11.2617,49275
11.2691,50815
11.2764,56543
11.2838,56290
11.2912,51969
11.2986,62714
11.3059,98567
11.3133,113463
11.3207,80123
11.3281,56903
11.3354,56499
11.3428,59392
11.3502,58738
11.3576,60011
11.3649,58067
11.3723,50253
11.3797,46875
11.3871,47437
11.3944,50329
11.4018,59026
11.4092,67890
11.4166,61016
11.424,51497
11.4313,49334
11.4387,52535
11.4461,53991
11.4535,53918
11.4608,61685
11.4682,75677
11.4756,74886
11.483,73308
11.4903,88789
11.4977,84458
11.5051,61057
11.5125,53906
11.5198,60002
11.5272,76040
11.5346,96233
11.542,88934
11.5494,60145
11.5567,49517
11.5641,53255
11.5715,57710
11.5789,58152
11.5862,52752
11.5936,49528
11.601,47653
11.6084,47733
11.6157,48269
11.6231,47405
11.6305,45677
11.6379,46270
11.6452,45911
11.6526,46440
11.66,49399
11.6674,65119
11.6748,77820
11.6821,66924
11.6895,61209
11.6969,71250
11.7043,63736
11.7116,49786
11.719,45826
11.7264,46645
11.7338,45680
11.7411,44549
11.7485,43168
11.7559,42655
11.7633,42514
11.7706,42173
11.778,41429
11.7854,42873
11.7928,47947
11.8001,54467
11.8075,60314
11.8149,61588
11.8223,55750
11.8297,53864
11.837,56816
11.8444,52775
11.8518,48314
11.8592,46256
11.8665,47355
11.8739,47240
11.8813,45819
11.8887,44954
11.896,45779
11.9034,45839
11.9108,46591
11.9182,47899
11.9255,45212
11.9329,44309
11.9403,43165
11.9477,46734
11.9551,51256
11.9624,52044
11.9698,50170
11.9772,52308
11.9846,55642
11.9919,57757
11.9993,54201
12.0067,47944
12.0141,45522
12.0214,47848
12.0288,48912
12.0362,44371
12.0436,44026
12.0509,44709
12.0583,46733
12.0657,51776
12.0731,54534
12.0805,49489
12.0878,45836
12.0952,45503
12.1026,48703
12.11,52279
12.1173,50282
12.1247,49209
12.1321,49395
12.1395,49702
12.1468,51500
12.1542,56157
12.1616,56334
12.169,50355
12.1763,48429
12.1837,48102
12.1911,48456
12.1985,47089
12.2059,48064
12.2132,51669
12.2206,52811
12.228,48426
12.2354,44151
12.2427,43917
12.2501,48347
12.2575,48100
12.2649,48221
12.2722,46440
12.2796,47245
12.287,50812
12.2944,52578
12.3017,49178
12.3091,48475
12.3165,48971
12.3239,49535
12.3312,48855
12.3386,45886
12.346,44610
12.3534,43647
12.3608,44093
12.3681,43708
12.3755,44323
12.3829,43193
12.3903,43603
12.3976,49448
12.405,64720
12.4124,88035
12.4198,103872
12.4271,102451
12.4345,75979
12.4419,53341
12.4493,46578
12.4566,45262
12.464,46736
12.4714,47114
12.4788,47118
12.4862,45290
12.4935,43321
12.5009,42809
12.5083,44163
12.5157,45936
12.523,46159
12.5304,48926
12.5378,46234
12.5452,44577
12.5525,42911
12.5599,44326
12.5673,45389
12.5747,44676
12.582,42981
12.5894,42917
12.5968,42821
12.6042,43895
12.6116,44266
12.6189,43122
12.6263,42478
12.6337,42700
12.6411,44167
12.6484,45696
12.6558,46949
12.6632,46457
12.6706,44379
12.6779,43528
12.6853,43359
12.6927,42308
12.7001,42915
12.7074,41897
12.7148,42565
12.7222,43256
12.7296,43513
12.7369,44005
12.7443,46659
12.7517,46928
12.7591,45762
12.7665,47827
12.7738,49237
12.7812,48373
12.7886,47272
12.796,46370
12.8033,46710
12.8107,49651
12.8181,48119
12.8255,48138
12.8328,47998
12.8402,51077
12.8476,51463
12.855,49447
12.8623,47403
12.8697,46589
12.8771,47191
12.8845,46417
12.8919,47027
12.8992,45875
12.9066,45262
12.914,45556
12.9214,47119
12.9287,47772
12.9361,47264
12.9435,47479
12.9509,45876
12.9582,46425
12.9656,46113
12.973,48790
12.9804,46772
12.9877,45373
12.9951,44815
13.0025,45394
13.0099,46149
13.0173,46330
13.0246,45615
13.032,47238
13.0394,46489
13.0468,45305
13.0541,44743
13.0615,44981
13.0689,46329
13.0763,50064
13.0836,58559
13.091,63743
13.0984,58852
13.1058,51495
13.1131,46798
13.1205,44209
13.1279,43876
13.1353,43255
13.1426,44856
13.15,46121
13.1574,46298
13.1648,46186
13.1722,44746
13.1795,45428
13.1869,45067
13.1943,43586
13.2017,43162
13.209,43412
13.2164,42527
13.2238,42449
13.2312,41575
13.2385,41273
13.2459,40251
13.2533,41228
13.2607,41831
13.268,40991
13.2754,42568
13.2828,42406
13.2902,41133
13.2976,41346
13.3049,41483
13.3123,42591
13.3197,44796
13.3271,47566
13.3344,47702
13.3418,43765
13.3492,44103
13.3566,43639
13.3639,43654
13.3713,42354
13.3787,42724
13.3861,42031
13.3934,42126
13.4008,43851
13.4082,43322
13.4156,44720
13.423,45654
13.4303,47791
13.4377,46608
13.4451,43378
13.4525,42113
13.4598,43815
13.4672,42108
13.4746,43706
13.482,44798
13.4893,44133
13.4967,44444
13.5041,43656
13.5115,45704
13.5188,46390
13.5262,46532
13.5336,43610
13.541,44421
13.5484,44415
13.5557,44132
13.5631,41586
13.5705,41724
13.5779,45130
13.5852,54815
13.5926,71803
13.6,74475
13.6074,58930
13.6147,49468
13.6221,44739
13.6295,43268
13.6369,42838
13.6442,41826
13.6516,42507
13.659,44962
13.6664,45294
13.6737,44732
13.6811,45773
13.6885,47076
13.6959,45462
13.7033,44031
13.7106,47441
13.718,46740
13.7254,45049
13.7328,44952
13.7401,48594
13.7475,48700
13.7549,46590
13.7623,44149
13.7696,44022
13.777,43734
13.7844,42641
13.7918,47667
13.7991,53736
13.8065,52068
13.8139,46356
13.8213,44852
13.8287,43335
13.836,42957
13.8434,42720
13.8508,42555
13.8582,42060
13.8655,41884
13.8729,42647
13.8803,40726
13.8877,41861
13.895,42127
13.9024,42658
13.9098,43218
13.9172,43347
13.9245,43854
13.9319,45422
13.9393,44945
13.9467,44529
13.9541,44146
13.9614,46547
13.9688,50185
13.9762,49482
13.9836,45845
13.9909,44223
13.9983,43752
14.0057,43089
14.0131,42471
14.0204,42969
14.0278,43154
14.0352,43375
14.0426,43740
14.0499,42947
14.0573,44033
14.0647,43518
14.0721,42554
14.0794,42820
14.0868,44738
14.0942,46357
14.1016,47042
14.109,46787
14.1163,46498
14.1237,45547
14.1311,44835
14.1385,45031
14.1458,44475
14.1532,44004
14.1606,44707
14.168,44152
14.1753,43606
14.1827,43697
14.1901,44026
14.1975,43482
14.2048,43599
14.2122,42765
14.2196,42748
14.227,43005
14.2344,43857
14.2417,44178
14.2491,44215
14.2565,42845
14.2639,42959
14.2712,42727
14.2786,43404
14.286,42699
14.2934,43172
14.3007,43823
14.3081,44735
14.3155,44206
14.3229,43111
14.3302,44025
14.3376,48307
14.345,55315
14.3524,56445
14.3598,50654
14.3671,48396
14.3745,45852
14.3819,45495
14.3893,45177
14.3966,45729
14.404,45783
14.4114,47037
14.4188,45057
14.4261,44981
14.4335,44808
14.4409,47953
14.4483,52292
14.4556,74858
14.463,100316
14.4704,83946
14.4778,64006
14.4851,55809
14.4925,51304
14.4999,49366
14.5073,50118
14.5147,48929
14.522,48124
14.5294,46482
14.5368,46576
14.5442,47674
14.5515,47058
14.5589,47088
14.5663,45820
14.5737,46119
14.581,46273
14.5884,47452
14.5958,50101
14.6032,61591
14.6105,68396
14.6179,59762
14.6253,52228
14.6327,48027
14.6401,47505
14.6474,47668
14.6548,48534
14.6622,47787
14.6696,47879
14.6769,49397
14.6843,51436
14.6917,50863
14.6991,49670
14.7064,49985
14.7138,50958
14.7212,52291
14.7286,53244
14.7359,52359
14.7433,53029
14.7507,51314
14.7581,52505
14.7655,52476
14.7728,53322
14.7802,54698
14.7876,54019
14.795,53346
14.8023,51630
14.8097,51950
14.8171,51578
14.8245,52007
14.8318,50954
14.8392,51091
14.8466,51908
14.854,52663
14.8613,53120
14.8687,53016
14.8761,52000
14.8835,52501
14.8908,53417
14.8982,53162
14.9056,52547
14.913,54652
14.9204,54990
14.9277,53602
14.9351,52667
14.9425,52351
14.9499,51503
14.9572,51245
14.9646,50493
14.972,51330
14.9794,52008
14.9867,52107
14.9941,49276
15.0015,49546
15.0089,49631
15.0162,50813
15.0236,49886
15.031,50498
15.0384,51460
15.0458,51760
15.0531,50293
15.0605,49815
15.0679,49467
15.0753,48844
15.0826,49456
15.09,48819
15.0974,49204
15.1048,49554
15.1121,49394
15.1195,49061
15.1269,49664
15.1343,49501
15.1416,50653
15.149,49799
15.1564,49353
15.1638,49195
15.1712,50172
15.1785,50888
15.1859,54302
15.1933,55436
15.2007,53507
15.208,52410
15.2154,52779
15.2228,52461
15.2302,51693
15.2375,52210
15.2449,50487
15.2523,52172
15.2597,51850
15.267,52087
15.2744,51345
15.2818,51307
15.2892,51125
15.2966,51543
15.3039,51953
15.3113,52922
15.3187,55317
15.3261,55831
15.3334,54551
15.3408,53258
15.3482,54161
15.3556,55678
15.3629,53344
15.3703,53804
15.3777,52558
15.3851,53883
15.3924,54036
15.3998,53794
15.4072,53479
15.4146,54392
15.4219,59256
15.4293,70322
15.4367,67657
15.4441,58138
15.4515,56514
15.4588,58089
15.4662,56555
15.4736,56586
15.481,55251
15.4883,55429
15.4957,55230
15.5031,54520
15.5105,54371
15.5178,55302
15.5252,54895
15.5326,55220
15.54,56424
15.5473,56700
15.5547,58696
15.5621,62404
15.5695,59862
15.5769,56432
15.5842,56152
15.5916,55876
15.599,55537
15.6064,54839
15.6137,57020
15.6211,55983
15.6285,56479
15.6359,55957
15.6432,55697
15.6506,56713
15.658,56604
15.6654,57207
15.6727,57362
15.6801,60644
15.6875,61978
15.6949,62297
15.7023,58764
15.7096,56730
15.717,57601
15.7244,56620
15.7318,59701
15.7391,57069
15.7465,58377
15.7539,57625
15.7613,58109
15.7686,58429
15.776,57903
15.7834,58752
15.7908,59885
15.7981,59817
15.8055,58835
15.8129,58338
15.8203,58447
15.8276,59203
15.835,58503
15.8424,58395
15.8498,58684
15.8572,58541
15.8645,59616
15.8719,58551
15.8793,58493
15.8867,60803
15.894,60180
15.9014,60426
15.9088,61139
15.9162,61081
15.9235,61285
15.9309,62858
15.9383,61264
15.9457,61328
15.953,61773
15.9604,63113
15.9678,63027
15.9752,63537
15.9826,63961
15.9899,65836
15.9973,66657
16.0047,65847
16.012,66836
16.0194,68701
16.0268,69599
16.0342,67075
16.0416,66052
16.0489,65614
16.0563,65212
16.0637,64061
16.0711,64955
16.0784,64395
16.0858,64323
16.0932,67253
16.1006,77707
16.1079,82954
16.1153,76087
16.1227,71218
16.1301,68592
16.1375,66637
16.1448,67000
16.1522,68626
16.1596,69144
16.167,67336
16.1743,68832
16.1817,70863
16.1891,72339
16.1965,73150
16.2038,72781
16.2112,71526
16.2186,70038
16.226,67995
16.2333,68066
16.2407,69833
16.2481,69755
16.2555,69255
16.2629,69287
16.2702,70223
16.2776,67875
16.285,70118
16.2923,75249
16.2997,76421
16.3071,74956
16.3145,70364
16.3219,70801
16.3292,70479
16.3366,72846
16.344,75959
16.3514,82510
16.3587,81135
16.3661,78611
16.3735,79080
16.3809,77695
16.3882,73469
16.3956,72549
16.403,71457
16.4104,72290
16.4178,72217
16.4251,72773
16.4325,70811
16.4399,73104
16.4473,72350
16.4546,71277
16.462,72634
16.4694,72657
16.4768,71834
16.4841,71430
16.4915,70831
16.4989,70407
16.5063,70196
16.5136,71324
16.521,71308
16.5284,72784
16.5358,71748
16.5432,72661
16.5505,72258
16.5579,73353
16.5653,73595
16.5726,73641
16.58,74486
16.5874,77638
16.5948,81630
16.6022,91693
16.6095,109637
16.6169,117127
16.6243,123219
16.6317,117420
16.639,104525
16.6464,93016
16.6538,87867
16.6612,82338
16.6686,79967
16.6759,79920
16.6833,82776
16.6907,83726
16.698,81275
16.7054,80648
16.7128,79506
16.7202,78363
16.7276,77932
16.7349,77532
16.7423,79712
16.7497,83805
16.7571,91263
16.7644,95315
16.7718,86526
16.7792,82466
16.7866,78420
16.7939,79445
16.8013,77436
16.8087,76987
16.8161,76701
16.8235,76726
16.8308,77062
16.8382,78116
16.8456,76953
16.853,78081
16.8603,78955
16.8677,77731
16.8751,77111
16.8825,77631
16.8898,77913
16.8972,76331
16.9046,78391
16.912,78605
16.9194,77243
16.9267,77435
16.9341,78201
16.9415,77573
16.9489,78337
16.9562,77785
16.9636,77644
16.971,78201
16.9783,77819
16.9857,78282
16.9931,77900
17.0005,78244
17.0079,79660
17.0152,78636
17.0226,79000
17.03,81192
17.0374,82778
17.0448,88591
17.0521,89402
17.0595,88120
17.0669,84954
17.0742,82737
17.0816,82331
17.089,83718
17.0964,91231
17.1038,99869
17.1111,97309
17.1185,90099
17.1259,87406
17.1333,87037
17.1406,88425
17.148,93474
17.1554,93968
17.1628,90260
17.1701,89834
17.1775,89856
17.1849,90964
17.1923,91529
17.1996,92003
17.207,91056
17.2144,91193
17.2218,90904
17.2292,91302
17.2365,91236
17.2439,91985
17.2513,91981
17.2586,90214
17.266,93248
17.2734,90967
17.2808,92185
17.2882,91997
17.2955,90315
17.3029,92192
17.3103,92293
17.3177,91477
17.3251,93095
17.3324,93463
17.3398,92102
17.3472,93196
17.3546,94695
17.3619,92832
17.3693,93385
17.3767,92548
17.384,92607
17.3914,92592
17.3988,92073
17.4062,91048
17.4136,92572
17.4209,92617
17.4283,94201
17.4357,96554
17.4431,96203
17.4505,92733
17.4578,90503
17.4652,90212
17.4726,92480
17.48,91784
17.4873,94948
