D:\Data GC-MS-77B\2017\APRIL\03-04-17\18791-17-1-AGYA.D 03 Apr 17  08:34 am
Start of data points
1.29377,28518
1.30052,39794
1.30727,377994
1.314,2947568
1.32075,4653501
1.32748,4343909
1.33423,4300782
1.34097,4334266
1.34772,4393002
1.35445,4459659
1.3612,4428410
1.36795,4402060
1.37468,4416637
1.38143,4435933
1.38817,4445738
1.39492,4500824
1.40165,4515187
1.4084,4502463
1.41515,4513399
1.42188,4545603
1.42863,4535949
1.43537,4540493
1.44212,4520998
1.44885,4489519
1.4556,4462216
1.46235,4422270
1.46908,4388869
1.47583,4339473
1.48257,4289387
1.48932,4229054
1.51018,12768409
1.51755,12486097
1.52493,12112999
1.5323,11796813
1.53968,11434768
1.54705,11068684
1.55443,10836396
1.56182,10839327
1.56918,10393802
1.57657,9865406
1.58393,9337028
1.59132,8964110
1.5987,8710598
1.60607,8538970
1.61345,8343166
1.62082,8172802
1.6282,8041830
1.63557,7946193
1.64295,7863194
1.65033,7792135
1.6577,7710453
1.66508,7610324
1.67245,7508462
1.67983,7464726
1.6872,7347686
1.69458,7202444
1.70197,7078824
1.70933,6865992
1.71672,6700566
1.72408,6554594
1.73147,6353376
1.73885,6085782
1.74622,5831732
1.7536,5562524
1.76097,5283476
1.76835,5008675
1.77572,4723993
1.7831,4458059
1.79048,4189422
1.79785,3935680
1.80523,3679888
1.8126,3426639
1.81998,3209005
1.82737,3016051
1.83473,2811004
1.84212,2642302
1.84948,2558312
1.85687,2548452
1.86423,2808698
1.87162,2821217
1.879,3411197
1.88637,3809160
1.89375,3637441
1.90112,3411281
1.9085,3181614
1.91588,2961362
1.92325,2777551
1.93063,2695321
1.938,2801471
1.94538,2706406
1.95275,2517172
1.96013,2335149
1.96752,2144047
1.97488,1974672
1.98227,1817181
1.98963,1647224
1.99702,1486057
2.0044,1344616
2.01177,1213753
2.01915,1116478
2.02652,1165089
2.0339,1234201
2.04127,1157343
2.04865,1070018
2.05603,1004356
2.0634,943375
2.07078,908861
2.07815,889949
2.08553,904132
2.09292,896537
2.10028,846812
2.10767,828310
2.11503,818467
2.12242,770587
2.12978,725657
2.13717,699116
2.14455,668748
2.15192,624721
2.1593,575098
2.16667,539698
2.17405,601885
2.18143,689385
2.1888,671867
2.19618,630347
2.20355,582359
2.21093,565198
2.2183,614249
2.22568,721529
2.23307,998566
2.24043,1139771
2.24782,1117233
2.25518,1077195
2.26257,1019111
2.26993,949665
2.27732,884669
2.2847,810676
2.29207,751390
2.29945,689326
2.30682,626033
2.3142,561830
2.32158,497854
2.32895,443032
2.33633,387145
2.3437,340052
2.35108,297053
2.35845,268695
2.36583,244414
2.37322,214080
2.38058,196412
2.38797,175892
2.39533,163645
2.40272,165701
2.4101,242024
2.41747,447055
2.42485,574540
2.43222,571361
2.4396,544402
2.44697,515405
2.45435,485397
2.46173,461660
2.4691,451026
2.47648,437152
2.48385,416842
2.49123,554678
2.49862,1278759
2.50598,2173122
2.51337,3140883
2.52073,3615396
2.52812,3560529
2.53548,3634960
2.54287,3719288
2.55025,3561388
2.55762,3347169
2.565,3050171
2.57237,2812752
2.57975,2638568
2.58713,2993450
2.5945,3925452
2.60188,4048207
2.60925,3748884
2.61663,3381240
2.624,3128569
2.63138,3040673
2.63877,2868920
2.64613,2625156
2.65352,2388436
2.66088,2174610
2.66827,1944808
2.67565,1879132
2.68302,1908991
2.6904,1886532
2.69777,2000611
2.70515,2511317
2.71252,2782750
2.7199,2697416
2.72728,2593103
2.73465,2583107
2.74203,2445047
2.7494,2290182
2.75678,2072027
2.76417,1841533
2.77153,1646565
2.77892,1456293
2.78628,1253353
2.79367,1121514
2.80103,1093090
2.80842,1146962
2.8158,1911476
2.82317,2575587
2.83055,2572292
2.83792,2391664
2.8453,2204887
2.85267,2176479
2.86005,2295691
2.86743,2405721
2.8748,2452378
2.88218,2309027
2.88955,2112439
2.89693,1893847
2.90432,1687549
2.91168,1520626
2.91907,1349895
2.92643,1195978
2.93382,1082619
2.94118,1045074
2.94857,978299
2.95595,858210
2.96332,759452
2.9707,731459
2.97807,773969
2.98545,790326
2.99283,743785
3.0002,672272
3.00758,594905
3.01495,526339
3.02233,489422
3.0297,500597
3.03708,487402
3.04447,447011
3.05183,479116
3.05922,716518
3.06658,1263497
3.07397,2046794
3.08135,2349689
3.08872,2251311
3.0961,2084401
3.10347,1900892
3.11085,1771629
3.11822,1633003
3.1256,1580969
3.13298,1664944
3.14035,1667380
3.14773,1582867
3.1551,1794469
3.16248,1946207
3.16987,1877370
3.17723,1773914
3.18462,1812880
3.19198,1859811
3.19937,1740786
3.20673,1564908
3.21412,1358190
3.2215,1169104
3.22887,996261
3.23625,937156
3.24362,1091145
3.251,1209191
3.25838,1175352
3.26575,1066992
3.27313,943838
3.2805,849356
3.28788,754221
3.29525,680954
3.30263,629425
3.31002,568292
3.31738,502985
3.32477,475923
3.33213,546880
3.33952,801497
3.3469,1183171
3.35427,1318087
3.36165,1257296
3.36902,1160794
3.3764,1088287
3.38377,1023959
3.39115,981591
3.39853,1178069
3.4059,1625505
3.41328,1978651
3.42065,1998251
3.42803,1899877
3.4354,1832963
3.44278,1767048
3.45017,1824337
3.45753,2074006
3.46492,2105118
3.47228,1984997
3.47967,1819592
3.48705,1624420
3.49442,1485783
3.5018,1497219
3.50917,1996890
3.51655,3056634
3.52392,3710230
3.5313,4023086
3.53868,4480570
3.54605,7079287
3.55343,17392290
3.5608,24937540
3.56818,26678904
3.57557,26345054
3.58293,25322348
3.59032,24289306
3.59768,23347848
3.60507,22504388
3.61243,21119292
3.61982,18751026
3.6272,16248221
3.63457,13654102
3.64195,11287877
3.64932,9198402
3.6567,7178319
3.66408,5525262
3.67145,4357873
3.67883,3948424
3.6862,3656909
3.69358,3330279
3.70095,3084722
3.70833,2801001
3.71572,2518463
3.72308,2141727
3.73047,1779382
3.73783,1422629
3.74522,1139270
3.7526,927813
3.75997,760306
3.76735,687614
3.77472,674974
3.7821,733750
3.78947,996142
3.79685,1262598
3.80423,1305306
3.8116,1319422
3.81898,1517962
3.82635,1688483
3.83373,1737156
3.84112,1719851
3.84848,1597393
3.85587,1427335
3.86323,1238797
3.87062,1125085
3.87798,1012566
3.88537,1010921
3.89275,1078209
3.90012,1208526
3.9075,2038105
3.91487,3763285
3.92225,4522063
3.92963,4377577
3.937,4046704
3.94438,3825855
3.95175,3394279
3.95913,2769943
3.9665,2167906
3.97388,1708930
3.98127,1410893
3.98863,1244194
3.99602,1410279
4.00338,1688132
4.01077,1670936
4.01813,1503564
4.02552,1339955
4.0329,1328694
4.04027,1394507
4.04765,1583560
4.05502,1710626
4.0624,1623370
4.06978,1522075
4.07715,1401191
4.08453,1209751
4.0919,1073603
4.09928,978361
4.10665,847202
4.11403,718607
4.12142,593846
4.12878,524159
4.13617,485255
4.14353,411550
4.15092,368044
4.1583,341139
4.16567,327190
4.17305,418588
4.18042,655117
4.1878,798957
4.19517,897098
4.20255,1018424
4.20993,1000248
4.2173,896044
4.22468,792698
4.23205,739529
4.23943,753449
4.24682,849463
4.25418,1089683
4.26157,1308419
4.26893,1358933
4.27632,1320045
4.28368,1252886
4.29107,1197984
4.29845,1076872
4.30582,959086
4.3132,999176
4.32057,1079474
4.32795,1203722
4.33533,1831263
4.3427,2695195
4.35008,3024151
4.35745,2918721
4.36483,2670661
4.3722,2300061
4.37958,1999883
4.38697,1807395
4.39433,1538800
4.40172,1294498
4.40908,1183693
4.41647,1114043
4.42385,1019765
4.43122,979204
4.4386,994741
4.44597,1067403
4.45335,1070124
4.46072,980339
4.4681,894185
4.47548,799751
4.48285,747060
4.49023,718472
4.4976,688360
4.50498,656970
4.51237,646005
4.51973,647817
4.52712,647695
4.53448,718500
4.54187,798669
4.54923,857177
4.55662,984265
4.564,1127921
4.57137,1134026
4.57875,1047834
4.58612,1000393
4.5935,1086734
4.60088,1187445
4.60825,1220977
4.61563,1206966
4.623,1182391
4.63038,1161525
4.63775,1115447
4.64513,1126570
4.65252,1135655
4.65988,1101851
4.66727,1465008
4.67463,5282579
4.68202,14899986
4.68938,21921148
4.69677,24163442
4.70415,23764322
4.71152,22845254
4.7189,20377422
4.72627,15951911
4.73365,10811070
4.74103,6566797
4.7484,3598627
4.75578,2158304
4.76315,3174886
4.77053,11911179
4.7779,25110860
4.78528,32047138
4.79267,34914740
4.80003,35870604
4.80742,35757944
4.81478,35509712
4.82217,31944914
4.82955,21192344
4.83692,10614138
4.8443,5590413
4.85167,3252297
4.85905,2118710
4.86642,1723402
4.8738,1657759
4.88118,1490261
4.88855,1275615
4.89593,1154335
4.9033,1099328
4.91068,1055346
4.91807,916968
4.92543,753611
4.93282,662578
4.94018,716841
4.94757,821402
4.95493,991096
4.96232,1272599
4.9697,1485488
4.97707,1662561
4.98445,1741725
4.99182,1766307
4.9992,1882970
5.00658,1822791
5.01395,1669867
5.02133,1544959
5.0287,1418737
5.03608,1192916
5.04345,1006922
5.05083,1111203
5.05822,4241278
5.06558,15377048
5.07297,26486310
5.08033,31276740
5.08772,32402546
5.0951,31342510
5.10247,25003358
5.10985,15491083
5.11722,10204663
5.1246,7265641
5.13197,4913386
5.13935,2817472
5.14673,1494932
5.1541,912068
5.16148,716621
5.16885,589693
5.17623,465721
5.18362,405517
5.19098,439194
5.19837,591836
5.20573,776132
5.21312,847479
5.22048,848700
5.22787,1010453
5.23525,1230938
5.24262,1250831
5.25,1097727
5.25737,1069272
5.26475,1189037
5.27212,1178558
5.2795,1058173
5.28688,827872
5.29425,578993
5.30163,460793
5.309,488514
5.31638,644831
5.32377,964554
5.33113,1242650
5.33852,1262864
5.34588,1045162
5.35327,793579
5.36063,607758
5.36802,533680
5.3754,515046
5.38277,587151
5.39015,850534
5.39752,1242099
5.4049,1705027
5.41228,2149041
5.41965,2208257
5.42703,1996818
5.4344,2133113
5.44178,3896473
5.44915,6276231
5.45653,7016176
5.46392,5976818
5.47128,4296386
5.47867,2844379
5.48603,1880467
5.49342,1330232
5.5008,1189876
5.50817,1543863
5.51555,2329691
5.52292,2757861
5.5303,2488057
5.53767,2028893
5.54505,1655695
5.55243,1314445
5.5598,1030143
5.56718,794644
5.57455,683490
5.58193,899442
5.58932,1297402
5.59668,1530253
5.60407,1494524
5.61143,1340100
5.61882,1145195
5.62618,999077
5.63357,862159
5.64095,782134
5.64832,777893
5.6557,739202
5.66307,767098
5.67045,833800
5.67783,924022
5.6852,963483
5.69258,915789
5.69995,860500
5.70733,802923
5.7147,822629
5.72208,902871
5.72947,950367
5.73683,898780
5.74422,761671
5.75158,658328
5.75897,789121
5.76635,1252773
5.77372,2104491
5.7811,5194601
5.78847,12080164
5.79585,17592324
5.80322,18788002
5.8106,16343426
5.81798,11407433
5.82535,6171087
5.83273,3258233
5.8401,2776364
5.84748,3372974
5.85485,4177233
5.86223,5412297
5.86962,7069978
5.87698,15267829
5.88437,26624730
5.89173,32122612
5.89912,34266532
5.9065,35346000
5.91387,35394280
5.92125,33421718
5.92862,29633750
5.936,16858316
5.94337,3692081
5.95075,2691600
5.95813,9002044
5.9655,20284198
5.97288,28373320
5.98025,31106138
5.98763,29129176
5.99502,14196154
6.00238,2704345
6.00977,1381110
6.01713,1562509
6.02452,1713622
6.03188,1630758
6.03927,1406275
6.04665,1227036
6.05402,1112346
6.0614,873837
6.06877,592648
6.07615,421464
6.08353,488817
6.0909,1789472
6.09828,8855136
6.10565,20882918
6.11303,27690048
6.1204,28978284
6.12778,21105712
6.13517,7870334
6.14253,2769649
6.14992,1667370
6.15728,1306498
6.16467,1302127
6.17205,1347369
6.17942,1289151
6.1868,1083699
6.19417,908932
6.20155,903358
6.20892,979482
6.2163,1039215
6.22368,1330163
6.23105,1696117
6.23843,1849665
6.2458,3385692
6.25318,11485165
6.26057,23744456
6.26793,31312330
6.27532,35016008
6.28268,36360732
6.29007,35260500
6.29743,34244788
6.30482,34839520
6.3122,6483937
6.31957,1155925
6.32695,887685
6.33432,1132457
6.3417,1721996
6.34908,1691449
6.35645,1244609
6.36383,817309
6.3712,575274
6.37858,593958
6.38595,885910
6.39333,1083170
6.40072,889219
6.40808,758254
6.41547,1756150
6.42283,3801504
6.43022,4058434
6.43758,2666735
6.44497,2463330
6.45235,3095852
6.45972,4073627
6.4671,4016705
6.47447,2468873
6.48185,1491380
6.48923,1377352
6.4966,1507477
6.50398,1710606
6.51135,2429736
6.51873,2269097
6.5261,1551698
6.53348,1405822
6.54087,2228480
6.54823,2730053
6.55562,1915663
6.56298,1901073
6.57037,2544369
6.57775,5542123
6.58512,11392440
6.5925,15845187
6.59987,22024776
6.60725,29082330
6.61462,33310736
6.622,32978140
6.62938,15639035
6.63675,2040820
6.64413,1117529
6.6515,1049867
6.65888,1334276
6.66627,2231228
6.67363,3514166
6.68102,3533782
6.68838,2584082
6.69577,1989632
6.70313,2000282
6.71052,2241744
6.7179,2650139
6.72527,3025755
6.73265,2410768
6.74002,1685509
6.7474,1912445
6.75478,5763045
6.76215,15122015
6.76953,21298080
6.7769,16753044
6.78428,5442830
6.79165,1325481
6.79903,801875
6.80642,857797
6.81378,866751
6.82117,807815
6.82853,946453
6.83592,1397515
6.8433,1593574
6.85067,1361227
6.85805,1629989
6.86542,2912557
6.8728,4543726
6.88017,8005965
6.88755,14066315
6.89493,19219562
6.9023,22700410
6.90968,27028946
6.91705,28305320
6.92443,23036992
6.93182,10696186
6.93918,5947056
6.94657,11215316
6.95393,19942536
6.96132,25073378
6.96868,23646948
6.97607,19314704
6.98345,23951228
6.99082,31134538
6.9982,32545082
7.00557,18489112
7.01295,4242297
7.02032,2112231
7.0277,3211353
7.03508,5492527
7.04245,4729074
7.04983,2378476
7.0572,1774438
7.06458,3542905
7.07197,7447481
7.07933,10898693
7.08672,13966187
7.09408,17397582
7.10147,12450944
7.10883,3663709
7.11622,1365110
7.1236,974057
7.13097,953510
7.13835,1494515
7.14572,2604919
7.1531,3049566
7.16048,2449241
7.16785,2121958
7.17523,1922544
7.1826,3753196
7.18998,12072603
7.19735,21641354
7.20473,26415474
7.21212,25650582
7.21948,22941182
7.22687,26671300
7.23423,24812450
7.24162,7890695
7.249,1533068
7.25637,2431564
7.26375,5565831
7.27112,7924844
7.2785,9666095
7.28587,18718418
7.29325,28872690
7.30063,33582516
7.308,30837378
7.31538,9525042
7.32275,6053604
7.33013,11990750
7.33752,14217472
7.34488,8276768
7.35227,2485384
7.35963,3352673
7.36702,7815622
7.37438,10878113
7.38177,11493935
7.38915,7953132
7.39652,2923910
7.4039,1422374
7.41127,1476236
7.41865,1956921
7.42603,3486565
7.4334,6280015
7.44078,7704384
7.44815,6826231
7.45553,4873407
7.4629,2733244
7.47028,2319993
7.47767,3781892
7.48503,4473888
7.49242,3056821
7.49978,2096454
7.50717,2360995
7.51455,6808108
7.52192,15615224
7.5293,18828386
7.53667,12331357
7.54405,4316165
7.55142,3381250
7.5588,4315352
7.56618,4543657
7.57355,3937862
7.58093,2200605
7.5883,1438340
7.59568,2443424
7.60305,3674242
7.61043,6346156
7.61782,15600506
7.62518,25658754
7.63257,30181846
7.63993,26525376
7.64732,9420181
7.6547,2344780
7.66207,5749032
7.66945,18388896
7.67682,28573144
7.6842,33030710
7.69157,32269136
7.69895,12719728
7.70633,1388429
7.7137,980054
7.72108,1370071
7.72845,2210779
7.73583,3216634
7.74322,3679680
7.75058,3193382
7.75797,3385513
7.76533,2694126
7.77272,1734684
7.78008,1570831
7.78747,1596195
7.79485,1752487
7.80222,2128263
7.8096,2729960
7.81697,4356254
7.82435,8620959
7.83173,10933826
7.8391,5908009
7.84648,2933372
7.85385,2402790
7.86123,2280995
7.8686,4146839
7.87598,9579091
7.88337,20251726
7.89073,27136116
7.89812,21551936
7.90548,14615411
7.91287,13660850
7.92025,7377124
7.92762,5251995
7.935,7462609
7.94237,7363531
7.94975,6114964
7.95712,6165349
7.9645,6154023
7.97188,3438794
7.97925,4837791
7.98663,12483000
7.994,17334314
8.00138,19316718
8.00877,24396476
8.01613,27928062
8.02352,28326644
8.03088,26022286
8.03827,19990150
8.04563,16100539
8.05302,7516124
8.0604,3244522
8.06777,6006484
8.07515,9600158
8.08252,8087107
8.0899,6195695
8.09728,8904431
8.10465,9598573
8.11203,9168625
8.1194,9017170
8.12678,8684175
8.13415,7682892
8.14153,6382885
8.14892,6503947
8.15628,6511303
8.16367,7783328
8.17103,6158637
8.17842,2692011
8.18578,1501487
8.19317,1289838
8.20055,2013729
8.20792,3505989
8.2153,5928183
8.22267,11045034
8.23005,12364233
8.23743,6068833
8.2448,1864764
8.25218,773384
8.25955,694039
8.26693,812345
8.2743,898612
8.28168,901571
8.28907,842656
8.29643,991456
8.30382,1703751
8.31118,2643018
8.31857,3594321
8.32595,5721508
8.33332,6966571
8.3407,4319013
8.34807,2944120
8.35545,4410338
8.36282,6777963
8.3702,12194386
8.37758,22704770
8.38495,27578286
8.39233,25466706
8.3997,20541950
8.40708,15638402
8.41447,7141245
8.42183,4608657
8.42922,3135388
8.43658,2830479
8.44397,4803423
8.45133,8959097
8.45872,14650180
8.4661,16527016
8.47347,10449463
8.48085,9395446
8.48822,16966934
8.4956,15429230
8.50298,6996878
8.51035,2880916
8.51773,2448934
8.5251,2411906
8.53248,3005406
8.53985,4193926
8.54723,3803893
8.55462,2595935
8.56198,2420557
8.56937,3461950
8.57673,7648957
8.58412,10386517
8.5915,6233507
8.59887,2618049
8.60625,2143873
8.61362,2345917
8.621,3215110
8.62837,3380155
8.63575,2895960
8.64313,1911383
8.6505,1246051
8.65788,1067418
8.66525,1759340
8.67263,3499658
8.68002,4941585
8.68738,4278085
8.69477,2887150
8.70213,2653493
8.70952,2988042
8.71688,3652952
8.72427,5755948
8.73165,5364213
8.73902,3563332
8.7464,2654840
8.75377,1864014
8.76115,1584275
8.76852,1805830
8.7759,1887192
8.78328,1531790
8.79065,1155289
8.79803,1257667
8.8054,1859697
8.81278,1838384
8.82017,2503007
8.82753,5167640
8.83492,7544474
8.84228,7796550
8.84967,6460072
8.85703,6419870
8.86442,7540185
8.8718,5416095
8.87917,2563874
8.88655,1948166
8.89392,3441354
8.9013,4327239
8.90868,4999937
8.91605,4485230
8.92343,3426132
8.9308,4155290
8.93818,4087495
8.94555,3553318
8.95293,4193881
8.96032,4754385
8.96768,5571623
8.97507,5524812
8.98243,3522930
8.98982,2855739
8.9972,7149232
9.00457,11498379
9.01195,8599743
9.01932,5172689
9.0267,4448424
9.03407,3431268
9.04145,3658052
9.04883,4176563
9.0562,2837617
9.06358,1180969
9.07095,924837
9.07833,1886856
9.08572,3877716
9.09308,4029585
9.10047,2599419
9.10783,2814111
9.11522,3003545
9.12258,2506710
9.12997,3149756
9.13735,5256288
9.14472,5965337
9.1521,3377616
9.15947,2384165
9.16685,3414363
9.17423,3732574
9.1816,2679616
9.18898,1985808
9.19635,2421945
9.20373,2257264
9.2111,1935510
9.21848,3129178
9.22587,4167241
9.23323,3148738
9.24062,1501704
9.24798,930647
9.25537,1025918
9.26275,1491345
9.27012,2510779
9.2775,3382689
9.28487,4716596
9.29225,6787711
9.29962,7416484
9.307,4585601
9.31438,2235862
9.32175,3313961
9.32913,4367266
9.3365,2864334
9.34388,2129844
9.35125,3776463
9.35863,5262902
9.36602,3805720
9.37338,1769297
9.38077,1575060
9.38813,1796299
9.39552,2145270
9.4029,2169725
9.41027,2337668
9.41765,3348528
9.42502,3273495
9.4324,2205598
9.43977,2376044
9.44715,3525330
9.45453,8186365
9.4619,16065036
9.46928,17308756
9.47665,8258101
9.48403,1767450
9.49142,1187397
9.49878,1194237
9.50617,1646041
9.51353,2449249
9.52092,1987708
9.52828,1285469
9.53567,1081276
9.54305,809006
9.55042,695587
9.5578,805971
9.56517,866464
9.57255,810390
9.57993,798521
9.5873,896590
9.59468,887278
9.60205,666058
9.60943,751656
9.6168,1958639
9.62418,5993680
9.63157,9870161
9.63893,6997749
9.64632,2632791
9.65368,1152401
9.66107,1176666
9.66845,1501676
9.67582,1616736
9.6832,1297472
9.69057,993306
9.69795,884714
9.70532,966396
9.7127,977399
9.72008,934071
9.72745,810095
9.73483,734147
9.7422,1063318
9.74958,1291464
9.75697,1189700
9.76433,858038
9.77172,557363
9.77908,468423
9.78647,484864
9.79383,595280
9.80122,693096
9.8086,799105
9.81597,1139297
9.82335,1316522
9.83072,947404
9.8381,626260
9.84548,890003
9.85285,1171331
9.86023,896660
9.8676,549595
9.87498,551677
9.88235,689597
9.88973,802584
9.89712,821989
9.90448,822078
9.91187,857687
9.91923,880416
9.92662,836116
9.934,795349
9.94137,805485
9.94875,628850
9.95612,554336
9.9635,555464
9.97087,514425
9.97825,473882
9.98563,468685
9.993,729569
10.0004,1298828
10.0078,1286442
10.0151,852007
10.0225,577444
10.0299,501469
10.0373,426179
10.0446,403362
10.052,544556
10.0594,764850
10.0668,624698
10.0742,376413
10.0815,283198
10.0889,305551
10.0963,376882
10.1037,406361
10.111,355105
10.1184,349442
10.1258,367291
10.1332,304687
10.1405,253664
10.1479,270360
10.1553,326091
10.1627,365472
10.17,400366
10.1774,393401
10.1848,355777
10.1922,311997
10.1995,329306
10.2069,346304
10.2143,415741
10.2217,508904
10.2291,443609
10.2364,346692
10.2438,377205
10.2512,711906
10.2586,1361575
10.2659,1243413
10.2733,556963
10.2807,336542
10.2881,329651
10.2954,351429
10.3028,349486
10.3102,312846
10.3176,291293
10.3249,331973
10.3323,544274
10.3397,776382
10.3471,689877
10.3545,703631
10.3618,1148984
10.3692,1163831
10.3766,630792
10.384,424240
10.3913,536403
10.3987,694180
10.4061,693516
10.4135,461647
10.4208,305844
10.4282,321383
10.4356,393657
10.443,555561
10.4503,1182737
10.4577,2068497
10.4651,2215425
10.4725,1360388
10.4799,546464
10.4872,303847
10.4946,287579
10.502,278595
10.5094,271513
10.5167,268235
10.5241,285998
10.5315,351200
10.5389,368310
10.5462,298787
10.5536,271359
10.561,269764
10.5684,290899
10.5757,332262
10.5831,641647
10.5905,1705645
10.5979,2870201
10.6052,2391841
10.6126,996880
10.62,773564
10.6274,1456064
10.6348,1490014
10.6421,709174
10.6495,312090
10.6569,282646
10.6643,334568
10.6716,435201
10.679,481940
10.6864,428901
10.6938,362955
10.7011,296799
10.7085,266699
10.7159,283714
10.7233,282991
10.7306,297894
10.738,292520
10.7454,264793
10.7528,292773
10.7602,483230
10.7675,917410
10.7749,1177230
10.7823,928385
10.7897,581760
10.797,556571
10.8044,659743
10.8118,656007
10.8192,463112
10.8265,324247
10.8339,286554
10.8413,254465
10.8487,255265
10.856,308532
10.8634,360213
10.8708,364467
10.8782,337668
10.8856,316058
10.8929,305835
10.9003,354715
10.9077,542871
10.9151,892790
10.9224,894636
10.9298,480498
10.9372,276136
10.9446,236993
10.9519,227433
10.9593,238120
10.9667,227241
10.9741,217196
10.9814,205660
10.9888,187661
10.9962,193866
11.0036,230052
11.011,265513
11.0183,265356
11.0257,223646
11.0331,184573
11.0405,180454
11.0478,186465
11.0552,208859
11.0626,243813
11.07,265574
11.0773,258314
11.0847,225679
11.0921,208320
11.0995,318368
11.1068,773876
11.1142,972171
11.1216,707085
11.129,679485
11.1363,586583
11.1437,330905
11.1511,242969
11.1585,250580
11.1659,269026
11.1732,341116
11.1806,419541
11.188,443298
11.1954,449693
11.2027,433629
11.2101,436980
11.2175,367418
11.2249,259110
11.2322,246647
11.2396,303034
11.247,317521
11.2544,279491
11.2617,228872
11.2691,236299
11.2765,312873
11.2839,307813
11.2913,275591
11.2986,379163
11.306,701803
11.3134,766196
11.3208,430382
11.3281,245626
11.3355,255825
11.3429,288978
11.3503,301540
11.3576,340818
11.365,299886
11.3724,226706
11.3798,192469
11.3871,192887
11.3945,242623
11.4019,348176
11.4093,431228
11.4167,343722
11.424,216699
11.4314,191335
11.4388,258975
11.4462,290336
11.4535,261705
11.4609,345539
11.4683,545142
11.4757,564654
11.483,586396
11.4904,819301
11.4978,764356
11.5052,439045
11.5125,314857
11.5199,372756
11.5273,612559
11.5347,928696
11.542,769561
11.5494,376846
11.5568,236209
11.5642,249005
11.5716,321327
11.5789,351304
11.5863,305620
11.5937,260688
11.6011,238253
11.6084,241092
11.6158,249959
11.6232,255317
11.6306,261283
11.6379,260878
11.6453,270604
11.6527,301403
11.6601,341216
11.6674,536642
11.6748,671789
11.6822,500737
11.6896,516934
11.697,653707
11.7043,469157
11.7117,244935
11.7191,184055
11.7265,191219
11.7338,183814
11.7412,172181
11.7486,166401
11.756,167051
11.7633,162639
11.7707,152527
11.7781,167735
11.7855,220932
11.7928,335291
11.8002,462875
11.8076,504233
11.815,468921
11.8224,370871
11.8297,359033
11.8371,425292
11.8445,325227
11.8519,222118
11.8592,227704
11.8666,266545
11.874,233156
11.8814,184176
11.8887,199322
11.8961,222584
11.9035,247588
11.9109,493480
11.9182,761849
11.9256,499657
11.933,242586
11.9404,223734
11.9477,305436
11.9551,431569
11.9625,473466
11.9699,447849
11.9773,535649
11.9846,557726
11.992,479412
11.9994,387513
12.0068,285681
12.0141,264508
12.0215,336588
12.0289,320920
12.0363,248507
12.0436,217572
12.051,239185
12.0584,330394
12.0658,523918
12.0731,609894
12.0805,420569
12.0879,264730
12.0953,253513
12.1027,286036
12.11,307540
12.1174,292069
12.1248,306125
12.1322,331159
12.1395,374939
12.1469,448292
12.1543,583890
12.1617,561475
12.169,424308
12.1764,338239
12.1838,345912
12.1912,335687
12.1985,284674
12.2059,310282
12.2133,400930
12.2207,373243
12.2281,258518
12.2354,193132
12.2428,220731
12.2502,281522
12.2576,311651
12.2649,319964
12.2723,288117
12.2797,329428
12.2871,523108
12.2944,601469
12.3018,501661
12.3092,438900
12.3166,418535
12.3239,357237
12.3313,286768
12.3387,240245
12.3461,223222
12.3534,218333
12.3608,228837
12.3682,227857
12.3756,206755
12.383,188026
12.3903,194198
12.3977,233081
12.4051,267153
12.4125,264192
12.4198,243627
12.4272,218834
12.4346,193922
12.442,172556
12.4493,169038
12.4567,181021
12.4641,233125
12.4715,281728
12.4788,255855
12.4862,221168
12.4936,196631
12.501,191069
12.5084,193745
12.5157,202267
12.5231,253954
12.5305,288157
12.5379,232812
12.5452,167768
12.5526,161396
12.56,190958
12.5674,211520
12.5747,196942
12.5821,169753
12.5895,158956
12.5969,166475
12.6042,190471
12.6116,211229
12.619,198441
12.6264,171079
12.6338,180245
12.6411,244424
12.6485,298155
12.6559,294834
12.6633,304417
12.6706,368510
12.678,565437
12.6854,519936
12.6928,283496
12.7001,229634
12.7075,281981
12.7149,291776
12.7223,338360
12.7296,386612
12.737,343644
12.7444,341500
12.7518,303131
12.7592,270794
12.7665,318538
12.7739,371631
12.7813,342291
12.7887,264957
12.796,241207
12.8034,311870
12.8108,376736
12.8182,318512
12.8255,262193
12.8329,284058
12.8403,330187
12.8477,325256
12.855,260858
12.8624,270631
12.8698,297755
12.8772,269434
12.8845,278273
12.8919,321878
12.8993,287089
12.9067,252747
12.9141,263034
12.9214,282784
12.9288,330597
12.9362,358969
12.9436,352969
12.9509,278623
12.9583,226167
12.9657,252876
12.9731,253076
12.9804,213670
12.9878,210548
12.9952,241408
13.0026,252988
13.0099,261349
13.0173,276478
13.0247,298077
13.0321,303366
13.0395,259622
13.0468,207242
13.0542,203673
13.0616,227922
13.069,228684
13.0763,235803
13.0837,298901
13.0911,350619
13.0985,300494
13.1058,240671
13.1132,194401
13.1206,166049
13.128,166335
13.1353,190112
13.1427,246321
13.1501,296464
13.1575,301968
13.1649,287667
13.1722,255006
13.1796,230832
13.187,245951
13.1944,220098
13.2017,187927
13.2091,182649
13.2165,185585
13.2239,172615
13.2312,148904
13.2386,141812
13.246,141402
13.2534,138994
13.2607,142404
13.2681,149080
13.2755,155170
13.2829,159044
13.2902,171686
13.2976,180905
13.305,176776
13.3124,186111
13.3198,220116
13.3271,215717
13.3345,180880
13.3419,175075
13.3493,201167
13.3566,204632
13.364,194624
13.3714,193280
13.3788,201787
13.3861,180437
13.3935,214992
13.4009,376928
13.4083,447750
13.4156,303005
13.423,199020
13.4304,187790
13.4378,183790
13.4452,162785
13.4525,159594
13.4599,173970
13.4673,199968
13.4747,267519
13.482,312554
13.4894,269825
13.4968,222669
13.5042,207695
13.5115,254370
13.5189,316676
13.5263,261133
13.5337,186253
13.541,159324
13.5484,154106
13.5558,139295
13.5632,128566
13.5706,140171
13.5779,165624
13.5853,187777
13.5927,196253
13.6001,173431
13.6074,172635
13.6148,187854
13.6222,184726
13.6296,175707
13.6369,166173
13.6443,146960
13.6517,136433
13.6591,139285
13.6664,140653
13.6738,137996
13.6812,138887
13.6886,151076
13.6959,152834
13.7033,169261
13.7107,206959
13.7181,233279
13.7255,264912
13.7328,244824
13.7402,198172
13.7476,189833
13.755,184481
13.7623,200141
13.7697,225700
13.7771,206047
13.7845,187366
13.7918,199014
13.7992,204718
13.8066,192397
13.814,167828
13.8213,146164
13.8287,150354
13.8361,148423
13.8435,136249
13.8509,134367
13.8582,152139
13.8656,171144
13.873,157215
13.8804,134895
13.8877,134052
13.8951,147871
13.9025,159637
13.9099,167706
13.9172,162402
13.9246,161932
13.932,165645
13.9394,180539
13.9467,173689
13.9541,145245
13.9615,138961
13.9689,143963
13.9763,133877
13.9836,138738
13.991,151888
13.9984,141843
14.0058,128696
14.0131,129049
14.0205,132724
14.0279,139537
14.0353,141436
14.0426,143959
14.05,156045
14.0574,165729
14.0648,147562
14.0721,127022
14.0795,128060
14.0869,178113
14.0943,287730
14.1016,266224
14.109,185941
14.1164,173131
14.1238,165231
14.1312,153979
14.1385,150204
14.1459,139417
14.1533,131295
14.1607,129800
14.168,131322
14.1754,125464
14.1828,118996
14.1902,117333
14.1975,116810
14.2049,116589
14.2123,111789
14.2197,112103
14.227,113973
14.2344,117606
14.2418,117585
14.2492,116034
14.2566,112584
14.2639,112084
14.2713,117483
14.2787,118439
14.2861,113673
14.2934,130586
14.3008,169079
14.3082,189799
14.3156,161311
14.3229,126834
14.3303,123850
14.3377,154862
14.3451,195563
14.3524,198713
14.3598,164450
14.3672,147801
14.3746,135437
14.382,122280
14.3893,119514
14.3967,145295
14.4041,178294
14.4115,173755
14.4188,145144
14.4262,123862
14.4336,111439
14.441,107204
14.4483,109158
14.4557,120959
14.4631,137217
14.4705,158077
14.4778,188815
14.4852,195467
14.4926,171901
14.5,153327
14.5074,165883
14.5147,162798
14.5221,133324
14.5295,113424
14.5369,114872
14.5442,129212
14.5516,135607
14.559,122270
14.5664,114652
14.5737,116939
14.5811,119492
14.5885,124937
14.5959,116322
14.6032,111098
14.6106,115635
14.618,121273
14.6254,115861
14.6327,110065
14.6401,104625
14.6475,109524
14.6549,109655
14.6623,109255
14.6696,110940
14.677,117504
14.6844,114514
14.6918,110910
14.6991,109942
14.7065,134151
14.7139,212462
14.7213,197283
14.7286,133693
14.736,113995
14.7434,109763
14.7508,114179
14.7581,137155
14.7655,136616
14.7729,115742
14.7803,107440
14.7877,105638
14.795,105729
14.8024,102636
14.8098,98362
14.8172,99374
14.8245,106231
14.8319,107816
14.8393,102475
14.8467,100877
14.854,97326
14.8614,97064
14.8688,100043
14.8762,103264
14.8835,98672
14.8909,94460
14.8983,91086
14.9057,92828
14.9131,89043
14.9204,91986
14.9278,95947
14.9352,97950
14.9426,96928
14.9499,95305
14.9573,91748
14.9647,95964
14.9721,107327
14.9794,117825
14.9868,105195
14.9942,99490
15.0016,96671
15.0089,96467
15.0163,95903
15.0237,105224
15.0311,115662
15.0384,108752
15.0458,98849
15.0532,101298
15.0606,104345
15.068,99068
15.0753,91394
15.0827,87399
15.0901,87712
15.0975,91902
15.1048,98218
15.1122,96414
15.1196,94597
15.127,99337
15.1343,117520
15.1417,121852
15.1491,112101
15.1565,103621
15.1638,105374
15.1712,115729
15.1786,118520
15.186,106947
15.1934,99021
15.2007,94857
15.2081,100107
15.2155,101630
15.2229,97274
15.2302,92560
15.2376,94203
15.245,101139
15.2524,113544
15.2597,155216
15.2671,141945
15.2745,106647
15.2819,93034
15.2892,91403
15.2966,89167
15.304,90577
15.3114,102179
15.3188,107734
15.3261,101372
15.3335,100169
15.3409,107472
15.3483,111052
15.3556,112750
15.363,117098
15.3704,114424
15.3778,106789
15.3851,101982
15.3925,100975
15.3999,94683
15.4073,93388
15.4146,92267
15.422,93493
15.4294,95998
15.4368,98810
15.4441,99438
15.4515,95311
15.4589,92069
15.4663,91307
15.4737,86813
15.481,85531
15.4884,82429
15.4958,81537
15.5032,82238
15.5105,81661
15.5179,82599
15.5253,83184
15.5327,83035
15.54,85403
15.5474,84417
15.5548,84168
15.5622,84081
15.5695,83095
15.5769,84016
15.5843,82033
15.5917,84934
15.5991,90766
15.6064,100742
15.6138,97672
15.6212,90266
15.6286,85670
15.6359,81032
15.6433,81126
15.6507,82425
15.6581,82666
15.6654,83974
15.6728,80812
15.6802,80848
15.6876,84567
15.6949,83655
15.7023,83155
15.7097,84179
15.7171,82785
15.7245,79801
15.7318,79326
15.7392,85406
15.7466,104659
15.754,105654
15.7613,90306
15.7687,83980
15.7761,81780
15.7835,82109
15.7908,81615
15.7982,82597
15.8056,84691
15.813,82210
15.8203,81425
15.8277,82598
15.8351,82057
15.8425,82929
15.8499,81758
15.8572,82462
15.8646,80031
15.872,80906
15.8794,81003
15.8867,81512
15.8941,82616
15.9015,82520
15.9089,81440
15.9162,83233
15.9236,84050
15.931,83787
15.9384,82031
15.9457,83790
15.9531,83990
15.9605,81257
15.9679,80655
15.9752,82371
15.9826,82462
15.99,84345
15.9974,83867
16.0048,83735
16.0121,82808
16.0195,84719
16.0269,84385
16.0343,84288
16.0416,83037
16.049,85224
16.0564,86093
16.0637,86528
16.0711,83797
16.0785,81812
16.0859,80599
16.0933,83358
16.1006,87147
16.108,90982
16.1154,91803
16.1228,91382
16.1302,90001
16.1375,90653
16.1449,90746
16.1523,93666
16.1596,94164
16.167,95774
16.1744,97553
16.1818,97812
16.1892,101864
16.1965,101935
16.2039,93017
16.2113,88814
16.2187,86699
16.226,85701
16.2334,85236
16.2408,85527
16.2482,86102
16.2555,87589
16.2629,87992
16.2703,88827
16.2777,87764
16.285,86698
16.2924,85800
16.2998,86039
16.3072,85916
16.3146,85297
16.3219,86394
16.3293,88229
16.3367,91193
16.3441,92627
16.3514,92263
16.3588,88698
16.3662,87808
16.3736,87992
16.3809,86273
16.3883,84591
16.3957,84096
16.4031,83528
16.4105,82778
16.4178,81945
16.4252,82131
16.4326,82750
16.44,83002
16.4473,83143
16.4547,84193
16.4621,83504
16.4694,83919
16.4768,82816
16.4842,83612
16.4916,82767
16.499,82959
16.5063,83246
16.5137,81888
16.5211,82067
16.5285,83031
16.5359,83381
16.5432,82991
16.5506,82245
16.558,81872
16.5653,84024
16.5727,84120
16.5801,90386
16.5875,109398
16.5949,152597
16.6022,246818
16.6096,382135
16.617,499319
16.6244,498566
16.6317,431855
16.6391,323538
16.6465,229671
16.6539,170568
16.6612,135244
16.6686,117596
16.676,108464
16.6834,106295
16.6908,105071
16.6981,108780
16.7055,108531
16.7129,105967
16.7203,103248
16.7276,101906
16.735,102637
16.7424,111193
16.7498,123249
16.7571,134672
16.7645,136298
16.7719,125597
16.7793,113651
16.7866,106408
16.794,98099
16.8014,95964
16.8088,94549
16.8162,92545
16.8235,93039
16.8309,94281
16.8383,92087
16.8456,93474
16.853,93952
16.8604,95436
16.8678,95710
16.8752,94550
16.8825,94037
16.8899,94898
16.8973,92712
16.9047,91799
16.912,91421
16.9194,89732
16.9268,89737
16.9342,89603
16.9415,90611
16.9489,88757
16.9563,90014
16.9637,90714
16.9711,90213
16.9784,89270
16.9858,90113
16.9932,87713
17.0006,91043
17.0079,90137
17.0153,90736
17.0227,90895
17.0301,90310
17.0374,90647
17.0448,91177
17.0522,90483
17.0596,91439
17.0669,91164
17.0743,90259
17.0817,90315
17.0891,91445
17.0965,90509
17.1038,92596
17.1112,92080
17.1186,89629
17.126,90156
17.1333,90621
17.1407,91504
17.1481,91726
17.1555,90646
17.1628,89371
17.1702,89873
17.1776,87317
17.185,88542
17.1923,89790
17.1997,89294
17.2071,90393
17.2145,91476
17.2219,90562
17.2292,89384
17.2366,91743
17.244,91080
17.2513,92437
17.2587,92710
17.2661,94826
17.2735,97806
17.2809,101194
17.2882,101598
17.2956,102761
17.303,103939
17.3104,105842
17.3177,108297
17.3251,111996
17.3325,112829
17.3399,114202
17.3472,115079
17.3546,113707
17.362,111763
17.3694,109475
17.3768,109462
17.3841,111905
17.3915,113245
17.3989,115770
17.4063,116001
17.4136,116463
17.421,116744
17.4284,115175
17.4358,112611
17.4431,112515
17.4505,110177
17.4579,107752
17.4653,107765
17.4727,108501
17.48,107407
17.4874,104707
