D:\Data GC-MS-77B\2017\APRIL\03-04-17\19250-17-3-YA.D 03 Apr 17  04:22 pm
Start of data points
1.29368,11765
1.30043,11777
1.30717,11739
1.31392,51262
1.32067,2068746
1.3274,4539657
1.33415,4263145
1.34088,4101467
1.34763,4142321
1.35437,4221984
1.36112,4295602
1.36787,4376321
1.3746,4423334
1.38135,4463615
1.38808,4525138
1.39483,4578450
1.40157,4627587
1.40832,4656599
1.41507,4723592
1.4218,4744847
1.42855,4774031
1.43528,4833545
1.44203,4873239
1.44877,4951027
1.45552,4968063
1.46227,4978871
1.469,5003601
1.47575,5033954
1.48248,5059916
1.48923,5091318
1.51008,15356484
1.51747,15326254
1.52485,15296110
1.53222,15152976
1.5396,14933452
1.54697,14713422
1.55435,14589178
1.56173,14667399
1.5691,14398635
1.57648,14003376
1.58385,13500261
1.59123,12965803
1.5986,12473698
1.60598,12598311
1.61337,12888250
1.62073,14360003
1.62812,14924671
1.63548,14625227
1.64287,14412576
1.65025,14560360
1.65762,14569984
1.665,14271796
1.67237,14142569
1.67975,14045028
1.68712,14255604
1.6945,14425992
1.70188,14232525
1.70925,13946417
1.71663,13630279
1.724,13282313
1.73138,13283701
1.73877,13234271
1.74613,12822952
1.75352,12362404
1.76088,11837828
1.76827,11276193
1.77563,10693963
1.78302,10074165
1.7904,9484096
1.79777,8871913
1.80515,8259090
1.81252,7711415
1.8199,7176964
1.82728,6831043
1.83465,6558626
1.84203,6141178
1.8494,5814927
1.85678,6139021
1.86415,6730865
1.87153,9878603
1.87892,11552232
1.88628,13494789
1.89367,13602541
1.90103,13072834
1.90842,12927444
1.9158,12272432
1.92317,11506931
1.93055,10764538
1.93792,10500546
1.9453,11457293
1.95267,11507916
1.96005,10787321
1.96743,10062684
1.9748,9659925
1.98218,11514014
1.98955,13193723
1.99693,12765652
2.00432,11875167
2.01168,10994807
2.01907,10136442
2.02643,9359866
2.03382,9616202
2.04118,10170297
2.04857,9735105
2.05595,9056402
2.06332,8520745
2.0707,8063659
2.07807,7762759
2.08545,7577729
2.09282,7636849
2.1002,7661323
2.10758,7143551
2.11495,6789695
2.12233,6523042
2.1297,6051524
2.13708,5644543
2.14447,5381588
2.15183,5101284
2.15922,4679034
2.16658,4201984
2.17397,3873525
2.18133,4181414
2.18872,4612659
2.1961,4376573
2.20347,3969501
2.21085,3598287
2.21822,3428114
2.2256,3700132
2.23298,4011333
2.24035,4907378
2.24773,5470916
2.2551,5304864
2.26248,4995107
2.26985,4664685
2.27723,4304653
2.28462,3944793
2.29198,3615741
2.29937,3403389
2.30673,3155211
2.31412,2851544
2.3215,2658501
2.32887,2797377
2.33625,2820072
2.34362,2597076
2.351,2342034
2.35837,2162796
2.36575,2224710
2.37313,2220954
2.3805,2032175
2.38788,1815813
2.39525,1635764
2.40263,1551057
2.41002,1511169
2.41738,1809432
2.42477,2571992
2.43213,2950172
2.43952,2910407
2.44688,2712189
2.45427,2480496
2.46165,2281844
2.46902,2128707
2.4764,2009455
2.48377,1898876
2.49115,1745740
2.49853,1922841
2.5059,2997428
2.51328,4543508
2.52065,7029269
2.52803,8035127
2.5354,7894992
2.54278,8004940
2.55017,8032710
2.55753,7422302
2.56492,6802194
2.57228,6253912
2.57967,5693778
2.58705,5348138
2.59442,6708925
2.6018,8904451
2.60917,8910755
2.61655,8166305
2.62392,7419063
2.6313,6673630
2.63868,5962282
2.64605,5304374
2.65343,4763402
2.6608,4207770
2.66818,3811787
2.67555,3483880
2.68293,3547157
2.69032,3739186
2.69768,3918239
2.70507,6156099
2.71243,10423542
2.71982,11743606
2.7272,11132835
2.73457,10448748
2.74195,10052228
2.74932,9324689
2.7567,8557066
2.76407,7806860
2.77145,7014629
2.77883,6237026
2.7862,5625742
2.79358,4985017
2.80095,4535106
2.80833,3961709
2.81572,3979622
2.82308,5537820
2.83047,6233904
2.83783,5692866
2.84522,5076374
2.85258,4597410
2.85997,4564544
2.86735,4751557
2.87472,4985891
2.8821,4921614
2.88947,4537116
2.89685,4185220
2.90423,3861184
2.9116,3468167
2.91898,3081226
2.92635,2705616
2.93373,2415907
2.9411,2425730
2.94848,2570008
2.95587,2402803
2.96323,2137492
2.97062,1952788
2.97798,1892168
2.98537,1916522
2.99275,1835588
3.00012,1632846
3.0075,1427117
3.01487,1245927
3.02225,1104675
3.02962,1045140
3.037,1060531
3.04438,974881
3.05175,888228
3.05913,953188
3.0665,1266614
3.07388,1808142
3.08127,2267714
3.08863,2249978
3.09602,2014105
3.10338,1804634
3.11077,1592602
3.11813,1449464
3.12552,1413506
3.1329,1677361
3.14027,2179199
3.14765,2286901
3.15502,2589924
3.1624,3382476
3.16978,3638047
3.17715,3398532
3.18453,3129289
3.1919,3043206
3.19928,2890941
3.20665,2530116
3.21403,2208782
3.22142,1875201
3.22878,1581864
3.23617,1348356
3.24353,1338714
3.25092,1528584
3.25828,1555330
3.26567,1434372
3.27305,1244513
3.28042,1072825
3.2878,920393
3.29517,795433
3.30255,719552
3.30993,696533
3.3173,663909
3.32468,590991
3.33205,605877
3.33943,1035431
3.3468,2541279
3.35418,3861746
3.36157,3904163
3.36893,3485551
3.37632,3215243
3.38368,2909309
3.39107,2613110
3.39845,2718134
3.40582,3577377
3.4132,4261934
3.42057,4239741
3.42795,3815838
3.43532,3558701
3.4427,3367221
3.45008,3254415
3.45745,3640411
3.46483,4091619
3.4722,3929478
3.47958,3521839
3.48697,3039923
3.49433,2578045
3.50172,2301670
3.50908,2347095
3.51647,3326215
3.52383,4324164
3.53122,4558525
3.5386,5252241
3.54597,5805277
3.55335,7812759
3.56072,13239272
3.5681,16391001
3.57548,15988249
3.58285,13831697
3.59023,12248007
3.5976,10767424
3.60498,10322346
3.61235,10422724
3.61973,10081614
3.62712,8606900
3.63448,7257026
3.64187,5992452
3.64923,4855098
3.65662,3828309
3.664,3054112
3.67137,2367061
3.67875,1987791
3.68612,1802661
3.6935,1597870
3.70087,1384413
3.70825,1260551
3.71563,1166816
3.723,1003612
3.73038,838667
3.73775,685564
3.74513,555291
3.75252,455422
3.75988,459232
3.76727,674678
3.77463,871860
3.78202,878355
3.78938,942287
3.79677,1157503
3.80415,1200648
3.81152,1144243
3.8189,1214771
3.82627,1317281
3.83365,1299899
3.84103,1239576
3.8484,1168206
3.85578,1007438
3.86315,850778
3.87053,746141
3.8779,686746
3.88528,707416
3.89267,829647
3.90003,916367
3.90742,1269796
3.91478,2567926
3.92217,3659189
3.92953,3547593
3.93692,3039197
3.9443,2581169
3.95167,2247886
3.95905,1873320
3.96642,1512889
3.9738,1171151
3.98118,895249
3.98855,750633
3.99593,760431
4.0033,878947
4.01068,868865
4.01805,745475
4.02543,626679
4.03282,614272
4.04018,734686
4.04757,943410
4.05493,1184814
4.06232,1181081
4.0697,1049957
4.07707,927803
4.08445,785419
4.09182,692124
4.0992,669973
4.10657,615385
4.11395,509550
4.12133,411437
4.1287,367712
4.13608,359940
4.14345,332783
4.15083,283074
4.15822,254961
4.16558,257008
4.17297,374385
4.18033,670756
4.18772,846690
4.19508,841366
4.20247,783971
4.20985,698186
4.21722,574355
4.2246,461556
4.23197,397832
4.23935,384038
4.24673,439160
4.2541,574051
4.26148,746049
4.26885,745559
4.27623,679809
4.2836,584153
4.29098,518097
4.29837,451700
4.30573,436416
4.31312,523452
4.32048,572976
4.32787,625232
4.33525,914867
4.34262,1395356
4.35,1590052
4.35737,1467456
4.36475,1251154
4.37212,1017561
4.3795,868096
4.38688,777119
4.39425,678640
4.40163,642620
4.409,1975356
4.41638,7107519
4.42377,12041027
4.43113,12374072
4.43852,10127758
4.44588,8034448
4.45327,5663292
4.46063,3610202
4.46802,2133033
4.4754,1186598
4.48277,735370
4.49015,538334
4.49752,445701
4.5049,379114
4.51227,334778
4.51965,322269
4.52703,323374
4.5344,356439
4.54178,397984
4.54915,399996
4.55653,407801
4.56392,415533
4.57128,401245
4.57867,366686
4.58603,347347
4.59342,439194
4.60078,590980
4.60817,747097
4.61555,823639
4.62292,780433
4.6303,703885
4.63767,623885
4.64505,604466
4.65243,579099
4.6598,512313
4.66718,469689
4.67455,1103931
4.68193,3628052
4.6893,6324027
4.69668,6737655
4.70407,5502117
4.71143,4049811
4.71882,2702544
4.72618,1626913
4.73357,929884
4.74095,539069
4.74832,361853
4.7557,349402
4.76307,989486
4.77045,4640459
4.77782,11806532
4.7852,15854246
4.79258,14989973
4.79995,11752039
4.80733,8017006
4.8147,4877141
4.82208,2605019
4.82947,1416736
4.83683,828317
4.84422,541521
4.85158,437279
4.85897,412736
4.86633,425797
4.87372,410892
4.8811,366932
4.88847,337858
4.89585,346678
4.90322,363411
4.9106,324854
4.91798,263073
4.92535,224962
4.93273,224556
4.9401,249595
4.94748,290965
4.95485,350538
4.96223,407417
4.96962,431058
4.97698,444663
4.98437,418524
4.99173,405349
4.99912,425370
5.0065,418753
5.01387,414144
5.02125,405293
5.02862,415889
5.036,640247
5.04337,1054941
5.05075,1330213
5.05813,1962958
5.0655,4578551
5.07288,6988251
5.08025,6713295
5.08763,4890936
5.095,2973626
5.10238,1912052
5.10977,1814771
5.11713,1832473
5.12452,1409789
5.13188,855761
5.13927,460050
5.14665,259589
5.15402,196859
5.1614,177149
5.16877,159083
5.17615,150505
5.18352,162622
5.1909,180704
5.19828,201444
5.20565,218071
5.21303,203764
5.2204,195562
5.22778,218790
5.23517,237108
5.24253,212017
5.24992,193925
5.25728,230094
5.26467,251301
5.27203,236869
5.27942,197510
5.2868,196862
5.29417,360755
5.30155,549996
5.30892,540260
5.3163,462498
5.32368,426823
5.33105,373358
5.33843,294491
5.3458,217840
5.35318,167452
5.36055,149509
5.36793,141101
5.37532,132165
5.38268,135480
5.39007,176848
5.39743,245227
5.40482,324187
5.4122,381839
5.41957,364003
5.42695,298511
5.43432,295656
5.4417,469048
5.44907,701468
5.45645,701721
5.46383,550039
5.4712,381599
5.47858,289955
5.48595,231199
5.49333,184034
5.50072,187659
5.50808,272862
5.51547,418611
5.52283,430918
5.53022,311751
5.53758,248985
5.54497,225832
5.55235,196988
5.55972,176307
5.5671,169074
5.57447,192920
5.58185,283343
5.58923,350855
5.5966,313272
5.60398,235762
5.61135,200117
5.61873,177567
5.6261,144948
5.63348,124451
5.64087,124669
5.64823,136178
5.65562,128570
5.66298,133349
5.67037,149358
5.67773,160018
5.68512,157365
5.6925,149270
5.69987,152836
5.70725,147398
5.71462,140548
5.722,149136
5.72938,151436
5.73675,141078
5.74413,142999
5.7515,179522
5.75888,260362
5.76625,363419
5.77363,431562
5.78102,633902
5.78838,1278909
5.79577,1672891
5.80313,1213426
5.81052,597138
5.8179,359020
5.82527,338861
5.83265,431776
5.84002,681990
5.8474,686299
5.85477,422921
5.86215,410107
5.86953,1176957
5.8769,3441567
5.88428,5179164
5.89165,4564805
5.89903,3447605
5.90642,2524843
5.91378,1440855
5.92117,652609
5.92853,282334
5.93592,199383
5.94328,388872
5.95067,1068619
5.95805,2185768
5.96542,2441286
5.9728,1539168
5.98017,626720
5.98755,240209
5.99493,168508
6.0023,171121
6.00968,177920
6.01705,181463
6.02443,182245
6.0318,209432
6.03918,225497
6.04657,198622
6.05393,162149
6.06132,125578
6.06868,98710
6.07607,92788
6.08345,143616
6.09082,512749
6.0982,1486369
6.10557,1990077
6.11295,1458461
6.12032,860118
6.1277,482407
6.13508,256622
6.14245,147754
6.14983,123042
6.1572,129031
6.16458,131411
6.17197,142905
6.17933,175853
6.18672,182700
6.19408,175189
6.20147,182598
6.20883,193270
6.21622,206607
6.2236,233179
6.23097,218765
6.23835,262413
6.24572,1243824
6.2531,4492959
6.26047,7146903
6.26785,5429740
6.27523,2287202
6.2826,928590
6.28998,375975
6.29735,169215
6.30473,139018
6.31212,139660
6.31948,126225
6.32687,124456
6.33423,131907
6.34162,137276
6.34898,120783
6.35637,94626
6.36375,75916
6.37112,82823
6.3785,136743
6.38587,263527
6.39325,265855
6.40063,157458
6.408,132016
6.41538,193936
6.42275,247412
6.43013,318516
6.4375,361157
6.44488,274874
6.45227,227923
6.45963,226678
6.46702,174301
6.47438,115858
6.48177,102961
6.48915,106007
6.49652,124886
6.5039,146252
6.51127,125048
6.51865,101152
6.52602,112970
6.5334,166658
6.54078,169578
6.54815,162672
6.55553,198833
6.5629,247433
6.57028,357886
6.57767,355902
6.58503,486173
6.59242,1342981
6.59978,2071648
6.60717,1484878
6.61453,566982
6.62192,186444
6.6293,110529
6.63667,116820
6.64405,180472
6.65142,349999
6.6588,457078
6.66618,370938
6.67355,281594
6.68093,202878
6.6883,157690
6.69568,173900
6.70305,191285
6.71043,173208
6.71782,173510
6.72518,161498
6.73257,132458
6.73993,126995
6.74732,202242
6.7547,488275
6.76207,744152
6.76945,554171
6.77682,279203
6.7842,148254
6.79157,100272
6.79895,95036
6.80633,92539
6.8137,86506
6.82108,99185
6.82845,123386
6.83583,121730
6.8432,111976
6.85058,158672
6.85797,264584
6.86533,265906
6.87272,336016
6.88008,629812
6.88747,781229
6.89485,1053940
6.90222,1553121
6.9096,1242560
6.91697,816605
6.92435,691744
6.93172,635288
6.9391,760178
6.94648,1038582
6.95385,1088497
6.96123,870851
6.9686,1015623
6.97598,1755497
6.98337,1755760
6.99073,1040740
6.99812,518368
7.00548,259863
7.01287,197739
7.02023,241816
7.02762,273544
7.035,193823
7.04237,121981
7.04975,157151
7.05712,383261
7.0645,549066
7.07188,432634
7.07925,565077
7.08663,680847
7.094,417335
7.10138,206417
7.10875,140535
7.11613,109196
7.12352,89915
7.13088,93921
7.13827,130071
7.14563,183373
7.15302,225523
7.1604,461212
7.16777,1187824
7.17515,1419327
7.18252,1216226
7.1899,1531017
7.19727,1188092
7.20465,1246174
7.21203,2237271
7.2194,1852452
7.22678,622387
7.23415,164052
7.24153,137384
7.24892,241944
7.25628,344020
7.26367,383795
7.27103,962560
7.27842,2416847
7.28578,2416454
7.29317,1033573
7.30055,309407
7.30792,292564
7.3153,591129
7.32267,717069
7.33005,424829
7.33743,217332
7.3448,175023
7.35218,224105
7.35955,416323
7.36693,853112
7.3743,1055924
7.38168,571259
7.38907,231158
7.39643,206368
7.40382,257182
7.41118,212620
7.41857,181352
7.42595,218701
7.43332,262228
7.4407,305314
7.44807,319302
7.45545,240269
7.46282,230359
7.4702,303382
7.47758,340435
7.48495,243733
7.49233,164687
7.4997,165521
7.50708,338485
7.51445,728992
7.52183,886518
7.52922,523328
7.53658,296235
7.54397,316679
7.55133,327267
7.55872,309675
7.5661,243698
7.57347,177501
7.58085,209692
7.58822,238532
7.5956,229335
7.60297,420367
7.61035,1266192
7.61773,2167463
7.6251,1535073
7.63248,479703
7.63985,152796
7.64723,215519
7.65462,1013991
7.66198,2731672
7.66937,2863340
7.67673,1275181
7.68412,617213
7.69148,324906
7.69887,143814
7.70625,118972
7.71362,147703
7.721,208948
7.72837,276167
7.73575,274184
7.74313,254249
7.7505,314638
7.75788,261443
7.76525,181889
7.77263,149679
7.78,147061
7.78738,166794
7.79477,195740
7.80213,212718
7.80952,301003
7.81688,600807
7.82427,653787
7.83165,377694
7.83902,244220
7.8464,206783
7.85377,242715
7.86115,363558
7.86852,723049
7.8759,1657167
7.88328,1922953
7.89065,1328428
7.89803,1140761
7.9054,696807
7.91278,407665
7.92017,501877
7.92753,662076
7.93492,802839
7.94228,676637
7.94967,529552
7.95703,493939
7.96442,366822
7.9718,526820
7.97917,935319
7.98655,1148577
7.99392,1712129
8.0013,2328902
8.00868,2066313
8.01605,1398241
8.02343,842278
8.0308,1077509
8.03818,1076184
8.04555,501901
8.05293,279512
8.06032,412220
8.06768,650268
8.07507,603140
8.08243,471873
8.08982,651856
8.09718,670095
8.10457,635410
8.11195,570226
8.11932,549737
8.1267,524319
8.13407,478384
8.14145,491900
8.14883,477133
8.1562,521667
8.16358,388850
8.17095,195017
8.17833,140702
8.1857,147503
8.19308,182951
8.20047,227835
8.20783,412912
8.21522,786581
8.22258,733106
8.22997,342048
8.23735,183063
8.24472,151480
8.2521,183523
8.25947,212469
8.26685,148045
8.27422,107138
8.2816,104339
8.28898,123828
8.29635,169160
8.30373,231162
8.3111,349879
8.31848,503269
8.32587,458747
8.33323,254625
8.34062,200244
8.34798,291050
8.35537,431754
8.36273,1030443
8.37012,2625301
8.3775,3118547
8.38487,1853160
8.39225,1236777
8.39962,1118326
8.407,586483
8.41438,348375
8.42175,255498
8.42913,204967
8.4365,274008
8.44388,509236
8.45125,897227
8.45863,1003328
8.46602,604701
8.47338,544580
8.48077,947516
8.48813,946787
8.49552,441188
8.5029,207246
8.51027,196865
8.51765,175304
8.52502,164305
8.5324,202669
8.53977,244224
8.54715,209389
8.55453,167484
8.5619,179022
8.56928,357110
8.57665,635652
8.58403,497534
8.59142,216622
8.59878,140241
8.60617,136894
8.61353,157959
8.62092,183423
8.62828,184793
8.63567,186721
8.64305,174297
8.65042,136354
8.6578,134423
8.66517,190602
8.67255,303676
8.67992,328398
8.6873,241938
8.69468,200930
8.70205,196253
8.70943,188379
8.7168,267719
8.72418,379780
8.73157,313901
8.73893,204964
8.74632,179175
8.75368,235388
8.76107,287779
8.76843,247022
8.77582,197435
8.7832,158703
8.79057,116547
8.79795,124596
8.80532,145530
8.8127,137244
8.82008,185621
8.82745,326143
8.83483,478195
8.8422,491078
8.84958,402988
8.85695,369173
8.86433,305320
8.87172,199423
8.87908,137873
8.88647,179724
8.89383,228860
8.90122,251248
8.9086,301648
8.91597,272765
8.92335,221139
8.93072,215982
8.9381,270807
8.94547,369530
8.95285,349492
8.96023,289616
8.9676,273479
8.97498,228028
8.98235,171352
8.98973,252933
8.99712,476192
9.00448,439388
9.01187,264132
9.01923,206329
9.02662,192728
9.03398,170908
9.04137,180164
9.04875,168908
9.05612,128910
9.0635,141492
9.07087,178825
9.07825,174347
9.08563,171140
9.093,145443
9.10038,135204
9.10775,146595
9.11513,139126
9.1225,137323
9.12988,220396
9.13727,341992
9.14463,294739
9.15202,185528
9.15938,204037
9.16677,234391
9.17415,339040
9.18152,848536
9.1889,1077467
9.19627,551316
9.20365,178642
9.21102,145016
9.2184,179789
9.22578,195394
9.23315,176004
9.24053,191849
9.2479,268453
9.25528,242988
9.26265,230853
9.27003,243897
9.27742,239960
9.28478,328174
9.29217,339992
9.29953,239224
9.30692,149320
9.3143,198100
9.32167,308622
9.32905,268622
9.33642,155430
9.3438,129103
9.35117,191722
9.35855,246793
9.36593,167797
9.3733,105819
9.38068,117798
9.38805,182444
9.39543,228141
9.40282,182209
9.41018,151896
9.41757,165008
9.42493,494774
9.43232,2313174
9.43968,4078487
9.44707,2417759
9.45445,1383343
9.46182,1122917
9.4692,482688
9.47657,147767
9.48395,97076
9.49133,103022
9.4987,143806
9.50608,417412
9.51345,1008674
9.52083,1073550
9.5282,551540
9.53558,193031
9.54297,110124
9.55033,99061
9.55772,120441
9.56508,144416
9.57247,129494
9.57985,172684
9.58722,871974
9.5946,2681961
9.60197,2645175
9.60935,1003393
9.61672,510095
9.6241,649157
9.63148,576496
9.63885,272914
9.64623,116148
9.6536,86585
9.66098,93281
9.66837,100934
9.67573,102071
9.68312,96912
9.69048,111391
9.69787,126021
9.70523,114468
9.71262,102785
9.72,98230
9.72737,89683
9.73475,78578
9.74212,85366
9.7495,103549
9.75688,120781
9.76425,113633
9.77163,92529
9.779,100545
9.78638,109168
9.79375,102957
9.80113,94999
9.80852,92942
9.81588,114334
9.82327,129134
9.83063,108920
9.83802,132306
9.84538,298042
9.85277,377652
9.86015,199106
9.86752,95845
9.8749,81320
9.88227,86422
9.88965,96822
9.89703,97727
9.9044,83148
9.91178,79676
9.91915,90866
9.92653,101723
9.9339,94609
9.94128,85073
9.94867,79871
9.95603,83860
9.96342,95046
9.97078,94395
9.97817,83876
9.98555,74005
9.99292,66474
10.0003,72479
10.0077,77138
10.0151,73144
10.0224,67483
10.0298,70571
10.0372,76626
10.0446,96705
10.0519,146032
10.0593,137809
10.0667,87008
10.0741,69975
10.0814,87175
10.0888,204334
10.0962,365004
10.1036,264655
10.1109,123901
10.1183,81428
10.1257,78623
10.1331,86921
10.1405,93714
10.1478,84322
10.1552,81079
10.1626,101247
10.17,104209
10.1773,86551
10.1847,96920
10.1921,143185
10.1995,141593
10.2068,96700
10.2142,89348
10.2216,97799
10.229,89318
10.2363,82537
10.2437,106301
10.2511,146817
10.2585,161901
10.2659,127917
10.2732,87297
10.2806,72404
10.288,74009
10.2954,79290
10.3027,79461
10.3101,72594
10.3175,79691
10.3249,90141
10.3322,91413
10.3396,95839
10.347,86585
10.3544,91538
10.3617,127416
10.3691,131549
10.3765,91734
10.3839,74515
10.3913,80629
10.3986,104614
10.406,114476
10.4134,95674
10.4208,76635
10.4281,73392
10.4355,75291
10.4429,84529
10.4503,114804
10.4576,154526
10.465,159405
10.4724,123862
10.4798,94524
10.4871,88860
10.4945,74862
10.5019,64602
10.5093,64353
10.5166,65186
10.524,68018
10.5314,75297
10.5388,80777
10.5462,82830
10.5535,77023
10.5609,71100
10.5683,99619
10.5757,135664
10.583,130126
10.5904,150170
10.5978,190002
10.6052,151719
10.6125,93846
10.6199,94168
10.6273,125635
10.6347,123000
10.642,107228
10.6494,116195
10.6568,102442
10.6642,77016
10.6716,79890
10.6789,92354
10.6863,84180
10.6937,75757
10.7011,70557
10.7084,74204
10.7158,83751
10.7232,90221
10.7306,95175
10.7379,110006
10.7453,89823
10.7527,68231
10.7601,71749
10.7674,87676
10.7748,101475
10.7822,95137
10.7896,79604
10.797,74779
10.8043,92415
10.8117,126262
10.8191,130352
10.8265,93622
10.8338,71622
10.8412,70167
10.8486,70840
10.856,64179
10.8633,61716
10.8707,69303
10.8781,104290
10.8855,171556
10.8928,182644
10.9002,126367
10.9076,96395
10.915,99691
10.9224,103499
10.9297,99681
10.9371,101348
10.9445,100411
10.9519,105508
10.9592,132240
10.9666,152113
10.974,134625
10.9814,99418
10.9887,85121
10.9961,89916
11.0035,84251
11.0109,70990
11.0182,72165
11.0256,80316
11.033,83620
11.0404,91695
11.0477,130234
11.0551,140527
11.0625,104816
11.0699,118507
11.0773,156353
11.0846,146666
11.092,227534
11.0994,566181
11.1068,713208
11.1141,361697
11.1215,135587
11.1289,81850
11.1363,71493
11.1436,66935
11.151,62349
11.1584,58847
11.1658,62525
11.1731,90992
11.1805,126393
11.1879,116610
11.1953,88950
11.2027,70107
11.21,66033
11.2174,69679
11.2248,84875
11.2322,94416
11.2395,169066
11.2469,399864
11.2543,432227
11.2617,221603
11.269,119568
11.2764,92648
11.2838,83296
11.2912,81102
11.2985,84785
11.3059,118960
11.3133,164865
11.3207,149160
11.3281,136372
11.3354,282669
11.3428,601562
11.3502,464473
11.3576,165699
11.3649,78625
11.3723,71258
11.3797,80938
11.3871,84776
11.3944,74606
11.4018,74859
11.4092,109327
11.4166,197423
11.4239,218940
11.4313,125018
11.4387,93824
11.4461,95871
11.4534,96633
11.4608,169491
11.4682,254180
11.4756,225433
11.483,141831
11.4903,133684
11.4977,117631
11.5051,88284
11.5125,73333
11.5198,65911
11.5272,69190
11.5346,80728
11.542,93263
11.5493,117474
11.5567,202688
11.5641,287978
11.5715,224064
11.5788,119841
11.5862,79977
11.5936,74135
11.601,70111
11.6084,66528
11.6157,70663
11.6231,75732
11.6305,71502
11.6379,83102
11.6452,127734
11.6526,144713
11.66,97072
11.6674,70433
11.6747,70803
11.6821,73722
11.6895,97380
11.6969,151728
11.7042,145758
11.7116,86464
11.719,68685
11.7264,69550
11.7338,63020
11.7411,57723
11.7485,56292
11.7559,59250
11.7633,61458
11.7706,60844
11.778,57631
11.7854,56598
11.7928,59342
11.8001,71154
11.8075,83058
11.8149,85873
11.8223,72440
11.8296,60796
11.837,60086
11.8444,63180
11.8518,66869
11.8591,79486
11.8665,83503
11.8739,69613
11.8813,57895
11.8887,54384
11.896,54619
11.9034,64916
11.9108,91526
11.9182,121264
11.9255,176167
11.9329,241563
11.9403,168130
11.9477,86254
11.955,75309
11.9624,70149
11.9698,63428
11.9772,61899
11.9845,66499
11.9919,76976
11.9993,82738
12.0067,70609
12.0141,59661
12.0214,57378
12.0288,57085
12.0362,61895
12.0436,72873
12.0509,70683
12.0583,60674
12.0657,57083
12.0731,56938
12.0804,55470
12.0878,52696
12.0952,52896
12.1026,53702
12.1099,55789
12.1173,57621
12.1247,62067
12.1321,72648
12.1395,76118
12.1468,64669
12.1542,66908
12.1616,68646
12.169,63535
12.1763,60740
12.1837,59237
12.1911,61580
12.1985,62452
12.2058,60605
12.2132,59992
12.2206,60801
12.228,61056
12.2353,54926
12.2427,55351
12.2501,54908
12.2575,57568
12.2648,59846
12.2722,60850
12.2796,58753
12.287,58968
12.2944,59957
12.3017,57029
12.3091,61453
12.3165,70335
12.3239,76533
12.3312,64710
12.3386,55625
12.346,52680
12.3534,51535
12.3607,52141
12.3681,53560
12.3755,54700
12.3829,55087
12.3902,54512
12.3976,59475
12.405,62378
12.4124,59443
12.4198,55642
12.4271,58010
12.4345,60482
12.4419,58354
12.4493,58126
12.4566,61680
12.464,67031
12.4714,66174
12.4788,61927
12.4861,59158
12.4935,55076
12.5009,52904
12.5083,51932
12.5156,56765
12.523,63575
12.5304,67044
12.5378,63131
12.5452,56356
12.5525,54461
12.5599,55070
12.5673,55168
12.5747,55244
12.582,57461
12.5894,61869
12.5968,61279
12.6042,60321
12.6115,56369
12.6189,58280
12.6263,68232
12.6337,80727
12.641,83720
12.6484,72298
12.6558,67809
12.6632,65074
12.6706,74122
12.6779,92434
12.6853,89238
12.6927,67028
12.7001,56559
12.7074,55229
12.7148,54500
12.7222,56579
12.7296,58543
12.7369,61227
12.7443,59548
12.7517,57138
12.7591,55233
12.7664,58323
12.7738,77235
12.7812,161703
12.7886,324916
12.7959,322643
12.8033,154161
12.8107,78558
12.8181,67184
12.8255,61686
12.8328,60146
12.8402,62502
12.8476,69187
12.855,75126
12.8623,66029
12.8697,67422
12.8771,72687
12.8845,68963
12.8918,62451
12.8992,57629
12.9066,59029
12.914,60457
12.9213,58416
12.9287,57543
12.9361,57624
12.9435,57649
12.9509,60307
12.9582,64515
12.9656,59453
12.973,55126
12.9804,55744
12.9877,58150
12.9951,68183
13.0025,132305
13.0099,285519
13.0172,284677
13.0246,132243
13.032,74743
13.0394,62124
13.0467,57308
13.0541,57202
13.0615,64938
13.0689,81551
13.0763,92887
13.0836,82242
13.091,76632
13.0984,101789
13.1058,126844
13.1131,100761
13.1205,72698
13.1279,71568
13.1353,78517
13.1426,71608
13.15,60799
13.1574,58955
13.1648,58776
13.1721,58603
13.1795,59475
13.1869,59634
13.1943,65053
13.2016,100881
13.209,196860
13.2164,247196
13.2238,163323
13.2312,83926
13.2385,64040
13.2459,57757
13.2533,54411
13.2607,57543
13.268,69549
13.2754,78359
13.2828,67804
13.2902,57297
13.2975,57444
13.3049,58187
13.3123,60010
13.3197,62728
13.327,74359
13.3344,76448
13.3418,63011
13.3492,57536
13.3566,66392
13.3639,74204
13.3713,69617
13.3787,60912
13.3861,55359
13.3934,55492
13.4008,59985
13.4082,64477
13.4156,57471
13.4229,53453
13.4303,52484
13.4377,64702
13.4451,93710
13.4524,98770
13.4598,68560
13.4672,55708
13.4746,53690
13.482,51906
13.4893,50311
13.4967,50870
13.5041,51288
13.5115,59469
13.5188,68252
13.5262,63687
13.5336,63505
13.541,83971
13.5483,109193
13.5557,86597
13.5631,62757
13.5705,55777
13.5778,53952
13.5852,54044
13.5926,55791
13.6,56803
13.6073,54987
13.6147,52959
13.6221,50695
13.6295,49953
13.6369,48996
13.6442,48648
13.6516,48599
13.659,49583
13.6664,48447
13.6737,49019
13.6811,47456
13.6885,47476
13.6959,46668
13.7032,47843
13.7106,49264
13.718,49261
13.7254,48602
13.7327,51323
13.7401,53650
13.7475,50910
13.7549,48658
13.7623,47614
13.7696,47965
13.777,47414
13.7844,47787
13.7918,49132
13.7991,49344
13.8065,48767
13.8139,47012
13.8213,46430
13.8286,46298
13.836,46563
13.8434,45878
13.8508,46762
13.8581,46797
13.8655,46929
13.8729,49539
13.8803,49021
13.8877,47167
13.895,46077
13.9024,46720
13.9098,46741
13.9172,47114
13.9245,46277
13.9319,47451
13.9393,46411
13.9467,46689
13.954,46435
13.9614,48541
13.9688,49448
13.9762,47301
13.9835,47735
13.9909,47048
13.9983,48070
14.0057,48812
14.013,49245
14.0204,47802
14.0278,47463
14.0352,47307
14.0426,47482
14.0499,48612
14.0573,50590
14.0647,49623
14.0721,47126
14.0794,47503
14.0868,47608
14.0942,51638
14.1016,52332
14.1089,48686
14.1163,47566
14.1237,48921
14.1311,48337
14.1384,49325
14.1458,48592
14.1532,48051
14.1606,48741
14.168,50452
14.1753,50738
14.1827,49816
14.1901,49107
14.1975,47993
14.2048,48269
14.2122,50170
14.2196,49982
14.227,48917
14.2343,48413
14.2417,50145
14.2491,48088
14.2565,46893
14.2638,47448
14.2712,50024
14.2786,53749
14.286,71351
14.2934,100543
14.3007,90132
14.3081,60202
14.3155,52512
14.3229,50072
14.3302,51305
14.3376,54611
14.345,56329
14.3524,52805
14.3597,50888
14.3671,53361
14.3745,50688
14.3819,49024
14.3892,48006
14.3966,48175
14.404,48049
14.4114,48099
14.4188,48554
14.4261,47547
14.4335,47707
14.4409,47252
14.4483,50645
14.4556,52691
14.463,55123
14.4704,55393
14.4778,63215
14.4851,75003
14.4925,67675
14.4999,55068
14.5073,51653
14.5146,50253
14.522,50505
14.5294,53158
14.5368,54454
14.5441,56056
14.5515,61674
14.5589,59826
14.5663,53598
14.5737,51465
14.581,51759
14.5884,50770
14.5958,50843
14.6032,52553
14.6105,51552
14.6179,50934
14.6253,51804
14.6327,55720
14.64,61347
14.6474,58518
14.6548,53755
14.6622,50945
14.6695,48647
14.6769,50813
14.6843,52611
14.6917,54399
14.6991,53678
14.7064,53852
14.7138,53764
14.7212,52843
14.7286,52669
14.7359,51041
14.7433,53479
14.7507,54939
14.7581,52634
14.7654,51674
14.7728,52036
14.7802,52188
14.7876,50960
14.7949,50407
14.8023,49913
14.8097,49634
14.8171,49172
14.8245,50713
14.8318,50800
14.8392,49679
14.8466,48877
14.854,50236
14.8613,50328
14.8687,50201
14.8761,49906
14.8835,49827
14.8908,51285
14.8982,52650
14.9056,50903
14.913,52233
14.9203,57885
14.9277,71995
14.9351,68224
14.9425,54640
14.9498,51283
14.9572,50725
14.9646,50415
14.972,53159
14.9794,52341
14.9867,52238
14.9941,50621
15.0015,50946
15.0089,51022
15.0162,49340
15.0236,50057
15.031,50963
15.0384,50394
15.0457,50926
15.0531,51247
15.0605,51125
15.0679,53412
15.0752,50833
15.0826,49783
15.09,49948
15.0974,50172
15.1048,49894
15.1121,51150
15.1195,50764
15.1269,51080
15.1343,50100
15.1416,50324
15.149,50663
15.1564,49891
15.1638,50778
15.1711,51364
15.1785,52994
15.1859,56085
15.1933,56602
15.2006,53849
15.208,53104
15.2154,53344
15.2228,53103
15.2302,53077
15.2375,54380
15.2449,53303
15.2523,52461
15.2597,54762
15.267,54055
15.2744,54005
15.2818,52196
15.2892,52637
15.2965,53413
15.3039,54744
15.3113,55936
15.3187,56738
15.326,57162
15.3334,58356
15.3408,57990
15.3482,59341
15.3555,59867
15.3629,59912
15.3703,58651
15.3777,58892
15.3851,59060
15.3924,58042
15.3998,60069
15.4072,61156
15.4146,58079
15.4219,58049
15.4293,59603
15.4367,58440
15.4441,59338
15.4514,60568
15.4588,59335
15.4662,58056
15.4736,58148
15.4809,64394
15.4883,79575
15.4957,82495
15.5031,69047
15.5105,64949
15.5178,64335
15.5252,65585
15.5326,65161
15.54,65165
15.5473,66658
15.5547,67815
15.5621,66055
15.5695,65912
15.5768,64194
15.5842,63666
15.5916,63313
15.599,64032
15.6063,65119
15.6137,63756
15.6211,63910
15.6285,64024
15.6359,67235
15.6432,76593
15.6506,77853
15.658,66917
15.6654,63802
15.6727,65291
15.6801,68950
15.6875,72170
15.6949,68748
15.7022,64916
15.7096,62482
15.717,61633
15.7244,61640
15.7317,60131
15.7391,61744
15.7465,64468
15.7539,69728
15.7612,71743
15.7686,63584
15.776,61518
15.7834,61800
15.7908,62686
15.7981,63765
15.8055,64404
15.8129,62352
15.8203,60983
15.8276,60836
15.835,61689
15.8424,62709
15.8498,65726
15.8571,64567
15.8645,63303
15.8719,62910
15.8793,63610
15.8866,62107
15.894,62681
15.9014,62212
15.9088,62911
15.9162,63224
15.9235,62609
15.9309,63098
15.9383,63076
15.9457,63232
15.953,63186
15.9604,65178
15.9678,67456
15.9752,67169
15.9825,64692
15.9899,70454
15.9973,84437
16.0047,83598
16.012,72080
16.0194,68742
16.0268,69557
16.0342,68497
16.0416,66958
16.0489,66545
16.0563,65811
16.0637,65936
16.0711,65015
16.0784,65962
16.0858,65329
16.0932,67671
16.1005,69907
16.1079,69494
16.1153,68503
16.1227,68826
16.1301,66983
16.1374,68641
16.1448,70416
16.1522,71773
16.1596,72168
16.167,71698
16.1743,73866
16.1817,75700
16.1891,76695
16.1964,73797
16.2038,72266
16.2112,70890
16.2186,69628
16.226,69008
16.2333,67745
16.2407,68427
16.2481,68121
16.2555,68837
16.2628,68695
16.2702,68836
16.2776,68918
16.285,68411
16.2923,70360
16.2997,70346
16.3071,69578
16.3145,69465
16.3219,68970
16.3292,69478
16.3366,71803
16.344,72615
16.3514,71843
16.3587,71583
16.3661,70480
16.3735,70184
16.3808,69276
16.3882,70000
16.3956,69703
16.403,69058
16.4104,69663
16.4177,68236
16.4251,68375
16.4325,68212
16.4399,70313
16.4473,70584
16.4546,72495
16.462,76694
16.4694,79859
16.4767,77633
16.4841,74753
16.4915,73171
16.4989,73011
16.5063,72914
16.5136,73612
16.521,74020
16.5284,75742
16.5358,75304
16.5431,76866
16.5505,75072
16.5579,76525
16.5653,76384
16.5726,76248
16.58,76305
16.5874,77904
16.5948,78670
16.6022,80063
16.6095,81723
16.6169,84772
16.6243,85867
16.6317,88664
16.639,80495
16.6464,80473
16.6538,80157
16.6612,80556
16.6685,78786
16.6759,77451
16.6833,77918
16.6907,77380
16.698,76539
16.7054,77216
16.7128,76453
16.7202,75688
16.7276,76332
16.7349,80635
16.7423,83473
16.7497,84653
16.7571,86299
16.7644,85916
16.7718,83901
16.7792,79542
16.7865,79151
16.7939,77557
16.8013,75710
16.8087,75916
16.8161,76940
16.8234,77143
16.8308,78252
16.8382,80052
16.8456,79931
16.853,79515
16.8603,78674
16.8677,79449
16.8751,78607
16.8824,79635
16.8898,78676
16.8972,77340
16.9046,76517
16.912,77313
16.9193,75471
16.9267,77009
16.9341,76766
16.9415,76285
16.9488,77655
16.9562,78076
16.9636,78491
16.971,78412
16.9783,78702
16.9857,78994
16.9931,78239
17.0005,81033
17.0079,87392
17.0152,92091
17.0226,90832
17.03,84958
17.0374,84138
17.0447,85394
17.0521,86052
17.0595,84689
17.0669,83774
17.0742,85380
17.0816,84764
17.089,86651
17.0964,88198
17.1037,91869
17.1111,90969
17.1185,90203
17.1259,91313
17.1333,92981
17.1406,94396
17.148,97060
17.1554,96504
17.1627,94735
17.1701,96691
17.1775,96268
17.1849,97151
17.1923,98632
17.1996,99186
17.207,99998
17.2144,99704
17.2218,98007
17.2291,98657
17.2365,95344
17.2439,97721
17.2513,96783
17.2586,97109
17.266,95314
17.2734,96847
17.2808,95271
17.2882,95259
17.2955,94799
17.3029,93610
17.3103,95022
17.3177,94189
17.325,95539
17.3324,95356
17.3398,96339
17.3472,95635
17.3545,94611
17.3619,93876
17.3693,90444
17.3767,89710
17.384,89069
17.3914,88905
17.3988,86181
17.4062,86422
17.4136,84944
17.4209,85438
17.4283,85395
17.4357,86232
17.443,84664
17.4504,82939
17.4578,84166
17.4652,83228
17.4726,82923
17.4799,82634
17.4873,83944
