D:\Data GC-MS-77B\2017\APRIL\04-04-17\19586-17 LQ SKYA.D 04 Apr 17  01:29 pm
Start of data points
1.29375,10638
1.30048,10639
1.30723,10465
1.31398,28163
1.32072,1254144
1.32747,4284901
1.3342,4566392
1.34095,4378112
1.34768,4366784
1.35443,4405912
1.36117,4457163
1.36792,4512705
1.37467,4557770
1.3814,4586710
1.38815,4646757
1.39488,4687576
1.40163,4736284
1.40837,4798379
1.41512,4848484
1.42187,4902011
1.4286,4911731
1.43535,4941128
1.44208,4955615
1.44883,4989478
1.45557,4988351
1.46232,5003186
1.46907,5028048
1.4758,5001088
1.48255,4988543
1.48928,4971497
1.51015,14197347
1.51753,13948078
1.5249,13477220
1.53228,13017405
1.53965,12439204
1.54703,11862257
1.5544,11356927
1.56178,10904614
1.56917,10595922
1.57653,10385801
1.58392,10287295
1.59128,10134933
1.59867,9934442
1.60605,9814572
1.61342,9739959
1.6208,9643700
1.62817,9551525
1.63555,9439961
1.64292,9320750
1.6503,9177709
1.65768,8973791
1.66505,8799434
1.67243,8556460
1.6798,8326710
1.68718,8130862
1.69457,7932613
1.70193,7668439
1.70932,7348886
1.71668,7028024
1.72407,6665759
1.73143,6442609
1.73882,6265563
1.7462,5950238
1.75357,5605833
1.76095,5255305
1.76832,4940578
1.7757,4603775
1.78308,4297390
1.79045,3982683
1.79783,3709148
1.8052,3445372
1.81258,3187000
1.81995,2941150
1.82733,2759647
1.83472,2636394
1.84208,2479942
1.84947,2361421
1.85683,2711407
1.86422,3278865
1.8716,6030438
1.87897,10097398
1.88635,18184790
1.89372,19583338
1.9011,19104258
1.90847,18468856
1.91585,17814150
1.92323,17117812
1.9306,16304564
1.93798,15622709
1.94535,16104637
1.95273,16089962
1.9601,15016837
1.96748,13734568
1.97487,12468375
1.98223,11489057
1.98962,10681160
1.99698,9721643
2.00437,8746347
2.01175,7725470
2.01912,6756038
2.0265,5980295
2.03387,6090044
2.04125,7475348
2.04862,7530143
2.056,7064146
2.06338,6669527
2.07075,6461927
2.07813,6408877
2.0855,6679350
2.09288,7096539
2.10027,7716778
2.10763,7441800
2.11502,7215006
2.12238,7329943
2.12977,6989995
2.13713,6604711
2.14452,6348711
2.1519,5965146
2.15927,5425053
2.16665,4869122
2.17402,4379143
2.1814,4854540
2.18878,6272970
2.19615,6432781
2.20353,5997078
2.2109,5511705
2.21828,5192743
2.22565,5674657
2.23303,6483120
2.24042,8616850
2.24778,10171555
2.25517,9972453
2.26253,9499115
2.26992,8917559
2.2773,8358335
2.28467,7758276
2.29205,6997319
2.29942,6176444
2.3068,5394196
2.31417,4646899
2.32155,3978851
2.32893,3379335
2.3363,2876860
2.34368,2427253
2.35105,2047578
2.35843,1741814
2.36582,1554478
2.37318,1411504
2.38057,1228270
2.38793,1058479
2.39532,912223
2.40268,835649
2.41007,851325
2.41745,1371040
2.42482,3240535
2.4322,4662578
2.43957,4825016
2.44695,4561356
2.45433,4269660
2.4617,4063362
2.46908,3858147
2.47645,3669292
2.48383,3430003
2.4912,3081792
2.49858,3277045
2.50597,6103524
2.51333,10519619
2.52072,16762511
2.52808,20473104
2.53547,20651710
2.54283,20831626
2.55022,21288070
2.5576,20754690
2.56497,19602222
2.57235,18183010
2.57972,16531238
2.5871,14976265
2.59448,15789558
2.60185,19929708
2.60923,21378582
2.6166,20604818
2.62398,19297100
2.63135,18149884
2.63873,17079998
2.64612,15528799
2.65348,13946867
2.66087,12238723
2.66823,10539314
2.67562,9209462
2.683,9019553
2.69037,9942399
2.69775,10285498
2.70512,10126813
2.7125,10837186
2.71987,11787580
2.72725,11605772
2.73463,11356528
2.742,11529681
2.74938,11139874
2.75675,10243651
2.76413,9117851
2.77152,7981504
2.77888,6913398
2.78627,5866592
2.79363,4984860
2.80102,4470208
2.80838,4047250
2.81577,4498974
2.82315,9016353
2.83052,13423213
2.8379,13907307
2.84527,13306820
2.85265,12726215
2.86003,12541876
2.8674,13166089
2.87478,13815220
2.88215,13825164
2.88953,12890481
2.8969,11919711
2.90428,10963570
2.91167,9690666
2.91903,8593837
2.92642,7537752
2.93378,6382622
2.94117,5693772
2.94855,5707803
2.95592,5421166
2.9633,4812386
2.97067,4207983
2.97805,4117873
2.98542,4477617
2.9928,4487594
3.00018,4080760
3.00755,3604500
3.01493,3156222
3.0223,2696363
3.02968,2362282
3.03707,2301320
3.04443,2198217
3.05182,1967225
3.05918,2296852
3.06657,3978415
3.07393,6767208
3.08132,9915960
3.0887,11069433
3.09607,10600519
3.10345,9694828
3.11082,8797656
3.1182,7705586
3.12557,6589715
3.13295,5878575
3.14033,6258872
3.1477,6432883
3.15508,6195432
3.16245,7129446
3.16983,7884833
3.17722,7508150
3.18458,7022076
3.19197,7413064
3.19933,7877117
3.20672,7278978
3.21408,6314840
3.22147,5413121
3.22885,4520987
3.23622,3656459
3.2436,3378117
3.25097,4247796
3.25835,5061456
3.26573,4966467
3.2731,4564083
3.28048,4179338
3.28785,3624735
3.29523,3046493
3.3026,2489399
3.30998,2237646
3.31737,2036110
3.32473,1810468
3.33212,1790918
3.33948,2042535
3.34687,2232886
3.35425,2378500
3.36162,2302145
3.369,2092549
3.37637,1894337
3.38375,1705866
3.39112,1517186
3.3985,1354111
3.40588,1524389
3.41325,2730092
3.42063,4166780
3.428,4546227
3.43538,4504494
3.44277,4585801
3.45013,4507168
3.45752,4609852
3.46488,5291442
3.47227,5365002
3.47963,5134083
3.48702,4761617
3.4944,4263791
3.50177,3971821
3.50915,4065209
3.51652,5552391
3.5239,8738471
3.53128,10910409
3.53865,12405493
3.54603,13935723
3.5534,18162336
3.56078,26837602
3.56815,30742116
3.57553,32200892
3.58292,31843920
3.59028,31366920
3.59767,30544900
3.60503,28922468
3.61242,28130890
3.6198,27785834
3.62717,26307212
3.63455,24001606
3.64192,21367446
3.6493,17940148
3.65667,14196311
3.66405,10881214
3.67143,7913308
3.6788,5895047
3.68618,5655389
3.69355,6272530
3.70093,6203237
3.7083,5989080
3.71568,5467272
3.72307,4572989
3.73043,3598686
3.73782,2671140
3.74518,1937328
3.75257,1364583
3.75995,989447
3.76732,849323
3.7747,982981
3.78207,1140077
3.78945,1532501
3.79682,2652432
3.8042,3780137
3.81158,3907079
3.81895,3859713
3.82633,4398102
3.8337,4840520
3.84108,4832370
3.84847,4737340
3.85583,4242252
3.86322,3477766
3.87058,2828337
3.87797,2337577
3.88533,2123716
3.89272,2238455
3.9001,2476095
3.90747,2883995
3.91485,5299914
3.92222,9460441
3.9296,10730492
3.93698,10103656
3.94435,8808664
3.95173,6937113
3.9591,5481097
3.96648,4133532
3.97385,3147634
3.98123,2485174
3.98862,2138688
3.99598,2191663
4.00337,3042798
4.01073,3823961
4.01812,3744357
4.0255,3218271
4.03287,2660148
4.04025,2482368
4.04762,2763692
4.055,3477276
4.06237,3791049
4.06975,3477305
4.07713,3066190
4.0845,2532947
4.09188,1977152
4.09925,1681875
4.10663,1544657
4.11402,1353066
4.12138,1087218
4.12877,866121
4.13613,741671
4.14352,672941
4.15088,605255
4.15827,572066
4.16565,543676
4.17302,575724
4.1804,920951
4.18777,1441335
4.19515,1728518
4.20253,1965259
4.2099,2059215
4.21728,1834125
4.22465,1455633
4.23203,1186516
4.2394,1147893
4.24678,1288579
4.25417,1658527
4.26153,2337772
4.26892,2693593
4.27628,2573776
4.28367,2235699
4.29103,1946223
4.29842,1740071
4.3058,1482292
4.31317,1371027
4.32055,1567886
4.32792,1828525
4.3353,2371827
4.34268,3940812
4.35005,5395097
4.35743,5390067
4.3648,4528255
4.37218,3393820
4.37955,2542413
4.38693,2134704
4.39432,1975749
4.40168,1696957
4.40907,1420223
4.41643,1334229
4.42382,1300653
4.4312,1319137
4.43857,1344887
4.44595,1476511
4.45332,1595222
4.4607,1547166
4.46807,1331160
4.47545,1067500
4.48283,927111
4.4902,903817
4.49758,943312
4.50495,984467
4.51233,946522
4.51972,906239
4.52708,871267
4.53447,905986
4.54183,1040056
4.54922,1103042
4.55658,1109437
4.56397,1210223
4.57135,1264137
4.57872,1167406
4.5861,1036657
4.59347,1040217
4.60085,1286774
4.60823,1461088
4.6156,1484007
4.62298,1386902
4.63035,1281125
4.63773,1188603
4.6451,1187288
4.65248,1297235
4.65987,1313650
4.66723,1274025
4.67462,2617929
4.68198,9933017
4.68937,20330432
4.69675,24929052
4.70412,24647426
4.7115,21288666
4.71887,15637403
4.72625,9292441
4.73362,4854026
4.741,2546185
4.74838,1416356
4.75575,917923
4.76313,1203889
4.7705,5634163
4.77788,18719374
4.78527,29275998
4.79263,33430116
4.80002,34737116
4.80738,33841644
4.81477,26734188
4.82213,13164034
4.82952,5962590
4.8369,2965355
4.84427,1803106
4.85165,1255952
4.85902,1087237
4.8664,1174147
4.87378,1321729
4.88115,1225078
4.88853,975566
4.8959,856833
4.90328,930576
4.91065,940940
4.91803,773318
4.92542,550688
4.93278,463260
4.94017,569128
4.94753,698628
4.95492,816752
4.96228,1122787
4.96967,1365736
4.97705,1465842
4.98442,1450657
4.9918,1440281
4.99917,1613858
5.00655,1615817
5.01393,1290907
5.0213,1065773
5.02868,971254
5.03605,799594
5.04343,595669
5.0508,569999
5.05818,1902230
5.06557,8958151
5.07293,20008128
5.08032,25300686
5.08768,23341322
5.09507,14299609
5.10245,6541262
5.10982,4105747
5.1172,4251217
5.12457,3567333
5.13195,2025571
5.13932,939384
5.1467,522219
5.15408,424553
5.16145,411800
5.16883,345777
5.1762,256179
5.18358,224953
5.19097,263999
5.19833,373457
5.20572,503097
5.21308,548396
5.22047,515502
5.22783,646913
5.23522,892299
5.2426,903863
5.24997,654478
5.25735,578234
5.26472,696779
5.2721,741865
5.27948,605933
5.28685,423556
5.29423,281044
5.3016,221666
5.30898,262931
5.31635,349653
5.32373,534541
5.33112,703146
5.33848,679672
5.34587,527640
5.35323,357126
5.36062,280436
5.368,269531
5.37537,281283
5.38275,337050
5.39012,525310
5.3975,791740
5.40487,987355
5.41225,1156968
5.41963,1042031
5.427,779056
5.43438,733632
5.44175,1305212
5.44913,2233357
5.45652,2354202
5.46388,1736794
5.47127,1075379
5.47863,781931
5.48602,643803
5.49338,487362
5.50077,465044
5.50815,685339
5.51552,1070278
5.5229,1245408
5.53027,904483
5.53765,592745
5.54502,592582
5.5524,534074
5.55978,381231
5.56715,271279
5.57453,249425
5.5819,367930
5.58928,588769
5.59667,651083
5.60403,511663
5.61142,412216
5.61878,404622
5.62617,369786
5.63353,322080
5.64092,307261
5.6483,309515
5.65567,289014
5.66305,284398
5.67042,340522
5.6778,381728
5.68518,388945
5.69255,344866
5.69993,297857
5.7073,269520
5.71468,278952
5.72205,346201
5.72943,385120
5.73682,328291
5.74418,248112
5.75157,211717
5.75893,340296
5.76632,608124
5.7737,829213
5.78107,1429576
5.78845,3808363
5.79582,6053591
5.8032,4751094
5.81057,2145146
5.81795,893809
5.82533,748592
5.8327,736921
5.84008,977369
5.84745,1278722
5.85483,887903
5.86222,692170
5.86958,2426573
5.87697,8419231
5.88433,15770757
5.89172,17302988
5.89908,13362853
5.90647,10720210
5.91385,7043963
5.92122,2638965
5.9286,794413
5.93597,373464
5.94335,653258
5.95073,2197461
5.9581,5646178
5.96548,8052192
5.97285,5773220
5.98023,2139475
5.9876,599247
5.99498,301930
6.00237,308281
6.00973,360768
6.01712,396243
6.02448,359374
6.03187,300315
6.03925,284944
6.04662,273329
6.054,219013
6.06137,154839
6.06875,125949
6.07612,127508
6.0835,225884
6.09088,1096491
6.09825,4201613
6.10563,6693435
6.113,4859610
6.12038,1901822
6.12775,692384
6.13513,395321
6.14252,273763
6.14988,263497
6.15727,303118
6.16463,315815
6.17202,292110
6.1794,237508
6.18677,185540
6.19415,208697
6.20152,298678
6.2089,329680
6.21627,280968
6.22365,267271
6.23103,256995
6.2384,356343
6.24578,2220140
6.25315,9752380
6.26053,18678176
6.26792,18771826
6.27528,8539557
6.28267,2043440
6.29003,592045
6.29742,264600
6.30478,205191
6.31217,167664
6.31955,160173
6.32692,212113
6.3343,257282
6.34167,236963
6.34905,186845
6.35643,146960
6.3638,117692
6.37118,123094
6.37855,160683
6.38593,187612
6.3933,165528
6.40068,137205
6.40807,194141
6.41543,352110
6.42282,396025
6.43018,308049
6.43757,300581
6.44495,301176
6.45232,311516
6.4597,328728
6.46707,256151
6.47445,184039
6.48182,187709
6.4892,212678
6.49658,243336
6.50395,288120
6.51133,236911
6.5187,176360
6.52608,168743
6.53347,237246
6.54083,246702
6.54822,176193
6.55558,152391
6.56297,272319
6.57033,592075
6.57772,650810
6.5851,904667
6.59247,3016296
6.59985,5283294
6.60722,4042994
6.6146,1376401
6.62198,335406
6.62935,154199
6.63673,123165
6.6441,133590
6.65148,194320
6.65885,269480
6.66623,336285
6.67362,335732
6.68098,253575
6.68837,207853
6.69573,169865
6.70312,156998
6.71048,195707
6.71787,260506
6.72525,232934
6.73262,159479
6.74,168946
6.74737,490094
6.75475,1704776
6.76213,2791456
6.7695,1945475
6.77688,669709
6.78425,192736
6.79163,117003
6.799,113566
6.80638,108235
6.81377,104175
6.82113,120459
6.82852,142617
6.83588,134220
6.84327,116337
6.85065,156051
6.85802,241326
6.8654,260978
6.87277,411873
6.88015,912574
6.88752,1214270
6.8949,1567284
6.90228,2264444
6.90965,1736578
6.91703,827357
6.9244,376428
6.93178,289508
6.93917,728035
6.94653,1324802
6.95392,1522485
6.96128,1222559
6.96867,1287799
6.97603,2472716
6.98342,2543048
6.9908,1324300
6.99817,497728
7.00555,176062
7.01292,157495
7.0203,259938
7.02768,320089
7.03505,237267
7.04243,157891
7.0498,177677
7.05718,429029
7.06455,663029
7.07193,528769
7.07932,695823
7.08668,861200
7.09407,534261
7.10143,241696
7.10882,163835
7.1162,140122
7.12357,140151
7.13095,210824
7.13832,367372
7.1457,355076
7.15307,220821
7.16045,151088
7.16783,123091
7.1752,257301
7.18258,1009737
7.18995,2028864
7.19733,1687768
7.20472,1364624
7.21208,1987248
7.21947,1454610
7.22683,468499
7.23422,139896
7.24158,152074
7.24897,330318
7.25635,548978
7.26372,541965
7.2711,1256849
7.27847,3183423
7.28585,3249736
7.29322,1322842
7.3006,366717
7.30798,380239
7.31535,916228
7.32273,1215954
7.3301,650564
7.33748,231832
7.34487,146424
7.35223,227444
7.35962,452546
7.36698,802992
7.37437,1048053
7.38173,573360
7.38912,205083
7.3965,149985
7.40387,159685
7.41125,201493
7.41862,440516
7.426,793700
7.43338,751738
7.44075,500440
7.44813,365707
7.4555,240919
7.46288,205831
7.47025,274916
7.47763,330224
7.48502,274884
7.49238,208256
7.49977,224192
7.50713,476170
7.51452,1076337
7.5219,1378372
7.52927,788187
7.53665,395493
7.54402,459705
7.5514,546022
7.55877,530799
7.56615,400162
7.57353,221078
7.5809,244976
7.58828,314534
7.59565,321088
7.60303,625893
7.61042,2131986
7.61778,4380451
7.62517,3479474
7.63253,1074542
7.63992,261441
7.64728,332467
7.65467,1810632
7.66205,5730119
7.66942,6752076
7.6768,2825185
7.68417,631251
7.69155,274604
7.69893,178389
7.7063,147368
7.71368,202333
7.72105,365626
7.72843,559604
7.7358,639495
7.74318,440509
7.75057,384752
7.75793,358187
7.76532,278560
7.77268,258407
7.78007,235778
7.78745,255450
7.79482,361510
7.8022,496519
7.80957,674999
7.81695,1266619
7.82432,1525942
7.8317,871352
7.83908,514144
7.84645,416252
7.85383,407057
7.8612,674431
7.86858,1480361
7.87595,3831760
7.88333,5002983
7.89072,3440323
7.89808,3120374
7.90547,2118036
7.91283,899764
7.92022,978011
7.9276,1230857
7.93497,1211547
7.94235,1305003
7.94972,1525627
7.9571,1501452
7.96447,844339
7.97185,1163906
7.97923,2689045
7.9866,3288728
7.99398,4389984
8.00135,6295605
8.00873,6521202
8.01612,5229317
8.02348,3118897
8.03087,3497832
8.03823,4336140
8.04562,2087480
8.05298,702147
8.06037,1025402
8.06775,1847031
8.07512,1699873
8.0825,1114793
8.08987,1653059
8.09725,2144029
8.10463,2427591
8.112,2568406
8.11938,2170237
8.12675,1882637
8.13413,1465485
8.1415,1516310
8.14888,1563388
8.15627,1929903
8.16363,1610979
8.17102,729947
8.17838,386966
8.18577,336978
8.19315,360513
8.20052,545769
8.2079,1198110
8.21527,2873974
8.22265,3295058
8.23002,1555803
8.2374,525942
8.24478,269194
8.25215,213812
8.25953,251838
8.2669,280352
8.27428,276917
8.28167,261919
8.28903,273910
8.29642,405740
8.30378,655521
8.31117,988756
8.31853,1717779
8.32592,2261204
8.3333,1445059
8.34067,842811
8.34805,1219628
8.35542,1904926
8.3628,3652329
8.37018,8925736
8.37755,12268979
8.38493,9011000
8.3923,6341021
8.39968,6367102
8.40705,3486404
8.41443,1584429
8.42182,1179645
8.42918,932942
8.43657,1275754
8.44393,2387271
8.45132,4535654
8.45868,5999856
8.46607,3941376
8.47345,2616449
8.48082,5040572
8.4882,6471500
8.49557,3566673
8.50295,1273160
8.51033,969701
8.5177,953114
8.52508,930826
8.53245,1331404
8.53983,1715029
8.5472,1409559
8.55458,1026933
8.56197,1055804
8.56933,1776396
8.57672,3467276
8.58408,3231412
8.59147,1415973
8.59885,869616
8.60622,840425
8.6136,1119167
8.62097,1465704
8.62835,1419291
8.63572,1087122
8.6431,688464
8.65048,470770
8.65785,467257
8.66523,916047
8.6726,1675433
8.67998,2026895
8.68737,1644859
8.69473,1197327
8.70212,1259660
8.70948,1298855
8.71687,1869616
8.72423,2615444
8.73162,2054178
8.739,1524892
8.74637,1103086
8.75375,769343
8.76112,738634
8.7685,838934
8.77588,764475
8.78325,612763
8.79063,501994
8.798,662335
8.80538,908902
8.81275,949347
8.82013,1507403
8.82752,2828959
8.83488,3792013
8.84227,3428363
8.84963,2670106
8.85702,3330879
8.8644,3522657
8.87177,2248003
8.87915,1103620
8.88652,1162167
8.8939,1895425
8.90127,2215971
8.90865,2584635
8.91603,2140761
8.9234,1790951
8.93078,2263433
8.93815,2105829
8.94553,1808592
8.95292,1819608
8.96028,2103433
8.96767,2843573
8.97503,2778337
8.98242,1685041
8.98978,1993621
8.99717,4722839
9.00455,5792464
9.01192,3540421
9.0193,2704772
9.02667,2242321
9.03405,1797890
9.04142,2064184
9.0488,2125022
9.05618,1221458
9.06355,489367
9.07093,492469
9.0783,1205774
9.08568,2206157
9.09307,1891754
9.10043,1280501
9.10782,1587814
9.11518,1567391
9.12257,1345513
9.12993,1966326
9.13732,3262299
9.1447,2985234
9.15207,1476768
9.15945,1418575
9.16682,2018221
9.1742,1950796
9.18158,1293129
9.18895,1065592
9.19633,1378853
9.2037,1200765
9.21108,1184915
9.21845,1999707
9.22583,2387121
9.23322,1620870
9.24058,744262
9.24797,528447
9.25533,619555
9.26272,973461
9.2701,1584836
9.27747,2047952
9.28485,2797676
9.29222,3568753
9.2996,3096106
9.30697,1593937
9.31435,1228885
9.32173,2149958
9.3291,2434775
9.33648,1497574
9.34385,1420377
9.35123,2379637
9.35862,3026208
9.36598,2015700
9.37337,1029406
9.38073,1010315
9.38812,1156276
9.39548,1352776
9.40287,1260784
9.41025,1482335
9.41762,2175238
9.425,1928174
9.43237,1389988
9.43975,1667416
9.44713,2979888
9.4545,7780492
9.46188,13441023
9.46925,10925189
9.47663,3349412
9.484,854814
9.49138,782894
9.49877,803636
9.50613,1144493
9.51352,1562773
9.52088,1160075
9.52827,765947
9.53565,648072
9.54302,514273
9.5504,439753
9.55777,507304
9.56515,528043
9.57252,507837
9.5799,514579
9.58728,586873
9.59465,557040
9.60203,414686
9.6094,514121
9.61678,1587569
9.62415,4517610
9.63153,6273468
9.63892,3734909
9.64628,1327936
9.65367,706944
9.66103,747161
9.66842,988664
9.6758,1070375
9.68317,812637
9.69055,607536
9.69792,545266
9.7053,606129
9.71267,638106
9.72005,577613
9.72743,493596
9.7348,460601
9.74218,656034
9.74955,810188
9.75693,709783
9.76432,513536
9.77168,338262
9.77907,274227
9.78643,283368
9.79382,372302
9.80118,426239
9.80857,468690
9.81595,674914
9.82332,802583
9.8307,579430
9.83807,368912
9.84545,538302
9.85283,719967
9.8602,512631
9.86758,328978
9.87495,318982
9.88233,397713
9.8897,453809
9.89708,462329
9.90447,492791
9.91183,529404
9.91922,528413
9.92658,473515
9.93397,428224
9.94135,415521
9.94872,328249
9.9561,306295
9.96347,313979
9.97085,283529
9.97822,262804
9.9856,262155
9.99298,429210
10.0004,750201
10.0077,789369
10.0151,489825
10.0225,314120
10.0299,261078
10.0372,223857
10.0446,215394
10.052,267556
10.0594,340541
10.0667,290115
10.0741,191699
10.0815,152667
10.0889,158313
10.0963,200757
10.1036,210732
10.111,173533
10.1184,172472
10.1258,194651
10.1331,161698
10.1405,128215
10.1479,138924
10.1553,162065
10.1626,184061
10.17,203518
10.1774,211119
10.1848,186199
10.1921,148186
10.1995,142710
10.2069,152160
10.2143,184761
10.2217,223043
10.229,202139
10.2364,166065
10.2438,164917
10.2512,232491
10.2585,392011
10.2659,376004
10.2733,204099
10.2807,148685
10.288,141643
10.2954,146052
10.3028,145123
10.3102,137366
10.3175,136460
10.3249,151682
10.3323,217594
10.3397,289923
10.3471,254499
10.3544,265397
10.3618,458526
10.3692,486826
10.3766,258890
10.3839,173881
10.3913,226181
10.3987,312880
10.4061,314515
10.4134,221016
10.4208,142625
10.4282,141674
10.4356,190928
10.4429,268898
10.4503,458094
10.4577,766619
10.4651,788099
10.4724,474154
10.4798,199285
10.4872,124228
10.4946,117214
10.502,119313
10.5093,120016
10.5167,116128
10.5241,122704
10.5315,147262
10.5388,146990
10.5462,117427
10.5536,96944
10.561,95970
10.5683,103605
10.5757,122423
10.5831,228614
10.5905,644084
10.5978,1032084
10.6052,833349
10.6126,353091
10.62,301993
10.6274,520148
10.6347,535873
10.6421,266811
10.6495,126623
10.6569,110750
10.6642,130178
10.6716,177963
10.679,195669
10.6864,162841
10.6937,137049
10.7011,112024
10.7085,95740
10.7159,93403
10.7232,90963
10.7306,96519
10.738,101438
10.7454,99459
10.7528,118208
10.7601,194897
10.7675,344815
10.7749,432691
10.7823,339835
10.7896,195076
10.797,145199
10.8044,184716
10.8118,221174
10.8191,189396
10.8265,150931
10.8339,130855
10.8413,110443
10.8486,107567
10.856,133608
10.8634,155200
10.8708,137706
10.8781,116134
10.8855,100587
10.8929,99306
10.9003,133239
10.9077,232228
10.915,372346
10.9224,367301
10.9298,193247
10.9372,129181
10.9445,113283
10.9519,101449
10.9593,95548
10.9667,89532
10.974,85877
10.9814,82471
10.9888,81079
10.9962,84205
11.0035,95617
11.0109,110304
11.0183,107353
11.0257,92437
11.0331,81149
11.0404,79903
11.0478,82183
11.0552,90933
11.0626,107537
11.0699,126363
11.0773,127473
11.0847,111340
11.0921,94447
11.0994,93223
11.1068,120232
11.1142,143966
11.1216,172224
11.1289,232840
11.1363,220955
11.1437,135959
11.1511,97208
11.1585,99412
11.1658,109079
11.1732,124527
11.1806,141371
11.188,144210
11.1953,157323
11.2027,163587
11.2101,171061
11.2175,148348
11.2248,105591
11.2322,99076
11.2396,118997
11.247,126229
11.2543,113318
11.2617,98137
11.2691,99045
11.2765,119977
11.2839,123280
11.2912,115213
11.2986,145520
11.306,224415
11.3134,250936
11.3207,157839
11.3281,101309
11.3355,103747
11.3429,116892
11.3502,120466
11.3576,126929
11.365,116959
11.3724,96231
11.3797,92559
11.3871,89947
11.3945,94440
11.4019,122533
11.4092,154619
11.4166,137383
11.424,96460
11.4314,84460
11.4388,93599
11.4461,101396
11.4535,96981
11.4609,121210
11.4683,178119
11.4756,190128
11.483,197209
11.4904,272361
11.4978,249175
11.5051,151158
11.5125,115130
11.5199,133638
11.5273,211924
11.5346,318082
11.542,270430
11.5494,145360
11.5568,94055
11.5642,96102
11.5715,116491
11.5789,119710
11.5863,96450
11.5937,85143
11.601,85499
11.6084,98341
11.6158,102455
11.6232,90520
11.6305,83860
11.6379,89687
11.6453,97385
11.6527,107749
11.66,123207
11.6674,190400
11.6748,241697
11.6822,181556
11.6896,171916
11.6969,217047
11.7043,171853
11.7117,96309
11.7191,76657
11.7264,74359
11.7338,76017
11.7412,72311
11.7486,71358
11.7559,70699
11.7633,68175
11.7707,66970
11.7781,78654
11.7854,115793
11.7928,166981
11.8002,195183
11.8076,197103
11.8149,189096
11.8223,155185
11.8297,147064
11.8371,174270
11.8445,137779
11.8518,94745
11.8592,92986
11.8666,106031
11.874,97857
11.8813,82256
11.8887,85390
11.8961,90692
11.9035,84003
11.9108,86766
11.9182,98384
11.9256,88423
11.933,77280
11.9403,81930
11.9477,112289
11.9551,163256
11.9625,184942
11.9699,163049
11.9772,164750
11.9846,172271
11.992,148824
11.9994,130032
12.0067,108418
12.0141,110836
12.0215,144134
12.0289,139758
12.0362,106562
12.0436,88276
12.051,90981
12.0584,109781
12.0657,164376
12.0731,194442
12.0805,144473
12.0879,98302
12.0953,94503
12.1026,105188
12.11,111191
12.1174,102792
12.1248,103456
12.1321,113470
12.1395,127317
12.1469,147019
12.1543,182736
12.1616,196033
12.169,172251
12.1764,134892
12.1838,118146
12.1911,113355
12.1985,102770
12.2059,108627
12.2133,130880
12.2206,128244
12.228,97424
12.2354,78450
12.2428,84403
12.2502,100426
12.2575,107513
12.2649,98502
12.2723,90815
12.2797,107906
12.287,156526
12.2944,179597
12.3018,143766
12.3092,137321
12.3165,141230
12.3239,127086
12.3313,107276
12.3387,89709
12.346,86125
12.3534,79317
12.3608,79673
12.3682,77089
12.3756,76982
12.3829,75779
12.3903,74042
12.3977,82128
12.4051,86825
12.4124,87672
12.4198,89099
12.4272,86417
12.4346,78076
12.4419,69520
12.4493,66183
12.4567,67837
12.4641,79797
12.4714,94337
12.4788,94169
12.4862,86488
12.4936,77718
12.501,76677
12.5083,78871
12.5157,82702
12.5231,95261
12.5305,104647
12.5378,86487
12.5452,69517
12.5526,66337
12.56,73514
12.5673,80327
12.5747,79627
12.5821,72170
12.5895,68300
12.5968,68824
12.6042,75349
12.6116,82371
12.619,79372
12.6263,71129
12.6337,71666
12.6411,92123
12.6485,112520
12.6559,107133
12.6632,106287
12.6706,101762
12.678,103187
12.6854,93960
12.6927,80281
12.7001,96734
12.7075,126891
12.7149,115224
12.7222,92224
12.7296,83040
12.737,88402
12.7444,101534
12.7517,97778
12.7591,91080
12.7665,113406
12.7739,132507
12.7813,127940
12.7886,96549
12.796,83768
12.8034,102088
12.8108,124736
12.8181,113888
12.8255,99583
12.8329,100845
12.8403,113116
12.8476,111923
12.855,100069
12.8624,104343
12.8698,113138
12.8771,99969
12.8845,105237
12.8919,124642
12.8993,114369
12.9067,95412
12.914,89731
12.9214,93050
12.9288,107708
12.9362,128603
12.9435,134235
12.9509,111379
12.9583,92771
12.9657,96998
12.973,99202
12.9804,87578
12.9878,84296
12.9952,89120
13.0025,90422
13.0099,91646
13.0173,100760
13.0247,102909
13.0321,102167
13.0394,89238
13.0468,77270
13.0542,74694
13.0616,77074
13.0689,78390
13.0763,85206
13.0837,105876
13.0911,132193
13.0984,116968
13.1058,95245
13.1132,79163
13.1206,68823
13.1279,68653
13.1353,75875
13.1427,88309
13.1501,99531
13.1574,107377
13.1648,109149
13.1722,100036
13.1796,88962
13.187,87688
13.1943,82350
13.2017,70297
13.2091,67772
13.2165,73615
13.2238,74269
13.2312,67554
13.2386,65209
13.246,64413
13.2533,63113
13.2607,64216
13.2681,65066
13.2755,67105
13.2828,69052
13.2902,78357
13.2976,82497
13.305,79766
13.3124,79111
13.3197,89868
13.3271,90427
13.3345,78423
13.3419,74965
13.3492,77767
13.3566,79247
13.364,75346
13.3714,72965
13.3787,79922
13.3861,74501
13.3935,69045
13.4009,79165
13.4082,85562
13.4156,74169
13.423,70405
13.4304,75211
13.4378,75258
13.4451,70825
13.4525,68224
13.4599,69108
13.4673,73433
13.4746,82507
13.482,86452
13.4894,80325
13.4968,77331
13.5041,74488
13.5115,89414
13.5189,108762
13.5263,97229
13.5336,76241
13.541,70465
13.5484,67797
13.5558,62752
13.5631,60402
13.5705,64220
13.5779,69043
13.5853,72384
13.5927,74322
13.6,69744
13.6074,68628
13.6148,74064
13.6222,75778
13.6295,76823
13.6369,77389
13.6443,70941
13.6517,62799
13.659,63066
13.6664,64451
13.6738,64244
13.6812,64702
13.6885,66962
13.6959,66319
13.7033,71371
13.7107,82327
13.7181,93226
13.7254,104046
13.7328,102386
13.7402,84886
13.7476,80500
13.7549,77297
13.7623,83748
13.7697,92228
13.7771,90332
13.7844,83339
13.7918,90826
13.7992,89534
13.8066,82194
13.8139,71794
13.8213,66927
13.8287,70632
13.8361,69301
13.8435,63342
13.8508,62274
13.8582,68706
13.8656,73015
13.873,70631
13.8803,64498
13.8877,63933
13.8951,69489
13.9025,72308
13.9098,71036
13.9172,70494
13.9246,73567
13.932,78700
13.9393,83804
13.9467,81694
13.9541,71542
13.9615,69331
13.9688,68430
13.9762,69074
13.9836,73336
13.991,77436
13.9984,71774
14.0057,62647
14.0131,60957
14.0205,64352
14.0279,68178
14.0352,68671
14.0426,67535
14.05,71254
14.0574,72774
14.0647,66953
14.0721,61623
14.0795,63372
14.0869,67233
14.0942,71125
14.1016,70451
14.109,76486
14.1164,88234
14.1238,84896
14.1311,77427
14.1385,73499
14.1459,70441
14.1533,64947
14.1606,63726
14.168,63328
14.1754,60549
14.1828,59058
14.1901,57234
14.1975,58657
14.2049,57775
14.2123,58247
14.2196,58172
14.227,59933
14.2344,60925
14.2418,61923
14.2492,60193
14.2565,59215
14.2639,59558
14.2713,59668
14.2787,60600
14.286,60511
14.2934,66636
14.3008,83676
14.3082,98028
14.3155,84429
14.3229,67527
14.3303,66313
14.3377,77230
14.345,97866
14.3524,101961
14.3598,83236
14.3672,71121
14.3746,68236
14.3819,63247
14.3893,62126
14.3967,67322
14.4041,79201
14.4114,79616
14.4188,71523
14.4262,66363
14.4336,61027
14.4409,58757
14.4483,58843
14.4557,56874
14.4631,62980
14.4704,72708
14.4778,85258
14.4852,87769
14.4926,78713
14.4999,74018
14.5073,85448
14.5147,86193
14.5221,71971
14.5295,63242
14.5368,63463
14.5442,67507
14.5516,66600
14.559,63308
14.5663,62291
14.5737,62202
14.5811,62530
14.5885,64141
14.5958,62566
14.6032,61758
14.6106,65088
14.618,66546
14.6253,64351
14.6327,61303
14.6401,60985
14.6475,61076
14.6549,63400
14.6622,63904
14.6696,65788
14.677,67704
14.6844,66810
14.6917,67048
14.6991,63216
14.7065,65577
14.7139,69903
14.7212,70921
14.7286,66800
14.736,63947
14.7434,65251
14.7507,69920
14.7581,78793
14.7655,76917
14.7729,69924
14.7803,67963
14.7876,65556
14.795,64904
14.8024,62564
14.8098,61583
14.8171,62502
14.8245,64056
14.8319,65000
14.8393,63026
14.8466,62977
14.854,61084
14.8614,60953
14.8688,62351
14.8761,65718
14.8835,63630
14.8909,62597
14.8983,61457
14.9056,60129
14.913,59937
14.9204,59553
14.9278,60106
14.9352,60428
14.9425,59792
14.9499,59633
14.9573,57616
14.9647,60608
14.972,65875
14.9794,69986
14.9868,66794
14.9942,62082
15.0015,61892
15.0089,60739
15.0163,61193
15.0237,65853
15.031,72987
15.0384,69182
15.0458,63527
15.0532,66022
15.0606,66219
15.0679,63955
15.0753,60917
15.0827,59071
15.0901,59576
15.0974,60353
15.1048,63048
15.1122,62516
15.1196,61762
15.1269,66351
15.1343,81048
15.1417,86156
15.1491,74343
15.1564,68136
15.1638,68913
15.1712,75945
15.1786,77862
15.186,70784
15.1933,65848
15.2007,62654
15.2081,65106
15.2155,66540
15.2228,66745
15.2302,67661
15.2376,69078
15.245,73059
15.2523,71112
15.2597,72191
15.2671,71664
15.2745,67862
15.2818,66528
15.2892,63552
15.2966,61889
15.304,62382
15.3113,64495
15.3187,65695
15.3261,63939
15.3335,63118
15.3409,63865
15.3482,65694
15.3556,66298
15.363,68786
15.3704,68704
15.3777,65402
15.3851,65225
15.3925,64386
15.3999,62093
15.4072,61853
15.4146,63630
15.422,67296
15.4294,69269
15.4367,69487
15.4441,69615
15.4515,66742
15.4589,64376
15.4663,65273
15.4736,62663
15.481,61518
15.4884,61605
15.4958,61234
15.5031,63137
15.5105,62592
15.5179,63586
15.5253,64197
15.5326,65785
15.54,64600
15.5474,65949
15.5548,64737
15.5621,62592
15.5695,63372
15.5769,63373
15.5843,64729
15.5917,66256
15.599,68262
15.6064,72079
15.6138,72761
15.6212,71374
15.6285,68323
15.6359,66242
15.6433,66877
15.6507,67393
15.658,67415
15.6654,67917
15.6728,67061
15.6802,69524
15.6875,70300
15.6949,67790
15.7023,69329
15.7097,70956
15.717,69740
15.7244,67014
15.7318,65750
15.7392,67302
15.7466,74594
15.7539,74627
15.7613,72735
15.7687,70065
15.7761,67457
15.7834,67246
15.7908,67821
15.7982,70103
15.8056,71954
15.8129,69708
15.8203,68596
15.8277,67837
15.8351,69491
15.8424,70473
15.8498,70907
15.8572,70313
15.8646,67637
15.872,68736
15.8793,69911
15.8867,67677
15.8941,68453
15.9015,68103
15.9088,68700
15.9162,71125
15.9236,71384
15.931,73259
15.9383,73156
15.9457,72763
15.9531,72214
15.9605,71746
15.9678,71946
15.9752,71954
15.9826,71783
15.99,72569
15.9974,72872
16.0047,72693
16.0121,72025
16.0195,72404
16.0269,74396
16.0342,75227
16.0416,73812
16.049,73175
16.0563,73826
16.0637,74625
16.0711,72958
16.0785,71299
16.0859,70474
16.0932,70376
16.1006,71611
16.108,71989
16.1154,72837
16.1228,73083
16.1301,73572
16.1375,72945
16.1449,75088
16.1522,76647
16.1596,76622
16.167,76549
16.1744,74190
16.1818,75911
16.1891,77150
16.1965,78712
16.2039,75675
16.2113,74898
16.2186,73380
16.226,92862
16.2334,83384
16.2408,74446
16.2481,85103
16.2555,84531
16.2629,74000
16.2703,74373
16.2777,74121
16.285,74681
16.2924,77043
16.2998,77265
16.3072,77421
16.3145,75371
16.3219,74626
16.3293,75343
16.3366,74603
16.344,76766
16.3514,76978
16.3588,77495
16.3662,76554
16.3735,74863
16.3809,75712
16.3883,75361
16.3957,75122
16.4031,74997
16.4104,76261
16.4178,75228
16.4252,76709
16.4325,75075
16.4399,75313
16.4473,74576
16.4547,76795
16.4621,78197
16.4694,76635
16.4768,77137
16.4842,76965
16.4916,76368
16.4989,77214
16.5063,76738
16.5137,75951
16.5211,76479
16.5284,77573
16.5358,78559
16.5432,75940
16.5506,77444
16.558,76852
16.5653,77263
16.5727,77472
16.5801,78182
16.5875,78213
16.5948,79439
16.6022,80072
16.6096,79193
16.617,81137
16.6243,80902
16.6317,81405
16.6391,81609
16.6465,81153
16.6538,82157
16.6612,81736
16.6686,80085
16.676,80756
16.6834,80284
16.6907,79721
16.6981,79388
16.7055,80089
16.7129,81235
16.7202,81024
16.7276,80218
16.735,81378
16.7423,81511
16.7497,83473
16.7571,84850
16.7645,87079
16.7719,87451
16.7792,85194
16.7866,84119
16.794,84561
16.8014,82755
16.8088,83270
16.8161,82678
16.8235,87231
16.8309,88986
16.8382,88203
16.8456,85419
16.853,85031
16.8604,83790
16.8678,85233
16.8751,83786
16.8825,85084
16.8899,84541
16.8973,83493
16.9046,84289
16.912,83529
16.9194,83953
16.9268,84202
16.9341,84414
16.9415,84155
16.9489,84344
16.9563,83850
16.9637,84767
16.971,84262
16.9784,85512
16.9858,84330
16.9932,85544
17.0005,84674
17.0079,86016
17.0153,88309
17.0227,87479
17.03,88277
17.0374,88397
17.0448,88928
17.0522,89178
17.0595,87924
17.0669,89751
17.0743,89347
17.0817,89841
17.0891,90291
17.0964,91388
17.1038,90737
17.1112,91370
17.1185,91541
17.1259,89780
17.1333,92463
17.1407,93377
17.1481,95828
17.1554,97079
17.1628,95239
17.1702,95151
17.1776,95342
17.1849,95390
17.1923,96922
17.1997,96736
17.2071,95398
17.2144,94946
17.2218,96915
17.2292,96257
17.2366,96542
17.244,97591
17.2513,97452
17.2587,96663
17.2661,95948
17.2735,97937
17.2808,96832
17.2882,97813
17.2956,94696
17.303,95716
17.3103,96560
17.3177,99633
17.3251,101473
17.3325,102855
17.3398,101537
17.3472,101098
17.3546,99312
17.362,99260
17.3694,99316
17.3767,98939
17.3841,100179
17.3915,97402
17.3988,98621
17.4062,95545
17.4136,96717
17.421,95868
17.4284,96490
17.4357,96932
17.4431,96393
17.4505,95679
17.4579,95539
17.4652,97564
17.4726,95434
17.48,95669
17.4874,97205
