D:\Data GC-MS-77B\2017\APRIL\04-04-17\19634-17 HS SKDM.D 04 Apr 17  04:56 pm
Start of data points
1.29382,11666
1.30057,11604
1.3073,11855
1.31405,32507
1.32078,1105375
1.32753,3405518
1.33428,4712294
1.34102,4814827
1.34777,4844951
1.3545,4845816
1.36125,4819251
1.36798,4638252
1.37473,4278727
1.38148,4078684
1.38822,3959539
1.39497,3864528
1.4017,3799076
1.40845,3726533
1.41518,3649907
1.42193,3578627
1.42868,3512797
1.43542,3422827
1.44217,3331421
1.4489,3220491
1.45565,3089336
1.46238,2961564
1.46913,2807161
1.47588,2650934
1.48262,2512877
1.48937,2366215
1.51022,6527245
1.5176,6082832
1.52498,5649458
1.53235,5273481
1.53973,4892451
1.5471,4542157
1.55448,4214797
1.56185,3947199
1.56923,3683074
1.57662,3437425
1.58398,3187788
1.59137,3170177
1.59873,4216142
1.60612,5282167
1.6135,5293215
1.62087,5157834
1.62825,4980100
1.63562,4822672
1.643,4623859
1.65037,4413830
1.65775,4205868
1.66513,4004780
1.6725,3796999
1.67988,3571462
1.68725,3378572
1.69463,3177939
1.702,2994849
1.70938,2833287
1.71677,2642741
1.72413,2471983
1.73152,2300592
1.73888,2145455
1.74627,1995366
1.75365,1846532
1.76102,1721533
1.7684,1595398
1.77577,1477498
1.78315,1376031
1.79052,1270119
1.7979,1181144
1.80528,1093824
1.81265,1008566
1.82003,930601
1.8274,860361
1.83478,795334
1.84217,738882
1.84953,685549
1.85692,628377
1.86428,583643
1.87167,545771
1.87903,515052
1.88642,786660
1.8938,1090726
1.90117,1053462
1.90855,984117
1.91592,916570
1.9233,850351
1.93068,791694
1.93805,731817
1.94543,675659
1.9528,620270
1.96018,575543
1.96755,527892
1.97493,486916
1.98232,445534
1.98968,401239
1.99707,355277
2.00443,314522
2.01182,283385
2.0192,255092
2.02657,227991
2.03395,207802
2.04132,192680
2.0487,179631
2.05607,164338
2.06345,152472
2.07083,143581
2.0782,136677
2.08558,128494
2.09295,123763
2.10033,120464
2.10772,118665
2.11508,125886
2.12247,148878
2.12983,184072
2.13722,226410
2.14458,269993
2.15197,142242
2.15935,122487
2.16672,113509
2.1741,104763
2.18147,98753
2.18885,94569
2.19623,89386
2.2036,82887
2.21098,82002
2.21835,78025
2.22573,76276
2.2331,74113
2.24048,72142
2.24787,70766
2.25523,66114
2.26262,63861
2.26998,60436
2.27737,59834
2.28473,57030
2.29212,55718
2.2995,53816
2.30687,51204
2.31425,49650
2.32162,49105
2.329,48260
2.33638,46396
2.34375,46180
2.35113,44437
2.3585,44212
2.36588,44457
2.37325,42992
2.38063,43004
2.38802,41672
2.39538,40634
2.40277,41204
2.41013,42132
2.41752,41876
2.4249,43746
2.43227,44298
2.43965,44674
2.44702,44258
2.4544,43608
2.46177,43751
2.46915,43194
2.47653,42815
2.4839,42531
2.49128,42693
2.49865,42476
2.50603,44195
2.51342,51083
2.52078,66196
2.52817,77183
2.53553,76805
2.54292,79389
2.55028,82979
2.55767,80562
2.56505,74828
2.57242,72304
2.5798,68088
2.58717,66348
2.59455,74680
2.60193,93226
2.6093,97157
2.61668,91010
2.62405,84996
2.63143,80349
2.6388,74946
2.64618,69812
2.65357,67048
2.66093,63305
2.66832,59455
2.67568,57176
2.68307,55712
2.69045,56974
2.69782,61537
2.7052,104555
2.71257,205946
2.71995,252356
2.72732,247068
2.7347,229787
2.74208,212386
2.74945,198387
2.75683,178815
2.7642,162292
2.77158,146681
2.77897,131197
2.78633,112285
2.79372,97059
2.80108,84463
2.80847,75765
2.81583,77290
2.82322,174590
2.8306,186943
2.83797,130791
2.84535,101564
2.85272,89459
2.8601,85366
2.86747,82509
2.87485,83692
2.88223,83395
2.8896,77450
2.89698,73579
2.90435,67787
2.91173,64039
2.91912,64810
2.92648,63997
2.93387,60115
2.94123,57777
2.94862,59390
2.95598,59293
2.96337,57618
2.97075,55603
2.97812,56029
2.9855,57901
2.99287,57410
3.00025,57083
3.00763,55208
3.015,54668
3.02238,52755
3.02975,53525
3.03713,56380
3.0445,57551
3.05188,56236
3.05927,56295
3.06663,56999
3.07402,60929
3.08138,69555
3.08877,68788
3.09615,66244
3.10352,61852
3.1109,58746
3.11827,55485
3.12565,55029
3.13302,62260
3.1404,76612
3.14778,81600
3.15515,88648
3.16253,113928
3.1699,129156
3.17728,124953
3.18467,117568
3.19203,112147
3.19942,103158
3.20678,95742
3.21417,85818
3.22153,75738
3.22892,66438
3.2363,60321
3.24367,59906
3.25105,64947
3.25842,65568
3.2658,64238
3.27318,60290
3.28055,55953
3.28793,53863
3.2953,50224
3.30268,47951
3.31005,48099
3.31743,47809
3.32482,46133
3.33218,46954
3.33957,60233
3.34693,117354
3.35432,192099
3.3617,205125
3.36907,186455
3.37645,168042
3.38382,149799
3.3912,132703
3.39857,131089
3.40595,158237
3.41333,183819
3.4207,180044
3.42808,163529
3.43545,142702
3.44283,129710
3.4502,119301
3.45758,132941
3.46497,158917
3.47233,159346
3.47972,147555
3.48708,129343
3.49447,114769
3.50185,104924
3.50922,101824
3.5166,126827
3.52397,160976
3.53135,164665
3.53872,167278
3.5461,167017
3.55348,172971
3.56085,225799
3.56823,279724
3.5756,277318
3.58298,243748
3.59037,208292
3.59773,185104
3.60512,194412
3.61248,234283
3.61987,231635
3.62723,220216
3.63462,193313
3.642,169603
3.64937,145111
3.65675,117921
3.66412,96025
3.6715,80766
3.67888,73871
3.68625,75239
3.69363,73862
3.701,71813
3.70838,72290
3.71575,74373
3.72313,71775
3.73052,65020
3.73788,58798
3.74527,54166
3.75263,49253
3.76002,47874
3.7674,56082
3.77477,57425
3.78215,55053
3.78952,56707
3.7969,64820
3.80427,68196
3.81165,64103
3.81903,63808
3.8264,67820
3.83378,71218
3.84115,74581
3.84853,344204
3.85592,726833
3.86328,442155
3.87067,215799
3.87803,136840
3.88542,108630
3.89278,98944
3.90017,95632
3.90755,102202
3.91492,145723
3.9223,189173
3.92967,187212
3.93705,166767
3.94443,145577
3.9518,128568
3.95918,107603
3.96655,91197
3.97393,78844
3.9813,70029
3.98868,67063
3.99607,68501
4.00343,74104
4.01082,77591
4.01818,74241
4.02557,67045
4.03293,64132
4.04032,65741
4.0477,71608
4.05507,80916
4.06245,81705
4.06982,76876
4.0772,72406
4.08458,64677
4.09195,62161
4.09933,62197
4.1067,62194
4.11408,57846
4.12145,55666
4.12883,53536
4.13622,53715
4.14358,53240
4.15097,50872
4.15833,50215
4.16572,50430
4.1731,60976
4.18047,75884
4.18785,86313
4.19522,84021
4.2026,78247
4.20997,73579
4.21735,65104
4.22473,59301
4.2321,57333
4.23948,56931
4.24685,58661
4.25423,69004
4.26162,77296
4.26898,78933
4.27637,74714
4.28373,69027
4.29112,63773
4.29848,60023
4.30587,55711
4.31325,56575
4.32062,59943
4.328,63274
4.33537,76049
4.34275,106020
4.35013,119860
4.3575,117229
4.36488,102836
4.37225,87896
4.37963,79449
4.387,77084
4.39438,75943
4.40177,70477
4.40913,65369
4.41652,63682
4.42388,61270
4.43127,61630
4.43865,60939
4.44602,63940
4.4534,64389
4.46077,62874
4.46815,60296
4.47552,56456
4.4829,55893
4.49028,56229
4.49765,57504
4.50503,57162
4.5124,54927
4.51978,53304
4.52717,53469
4.53453,57607
4.54192,61487
4.54928,62749
4.55667,61835
4.56403,63056
4.57142,62877
4.5788,58662
4.58617,56762
4.59355,62326
4.60092,69363
4.6083,72350
4.61568,70117
4.62305,67391
4.63043,66665
4.6378,65520
4.64518,67389
4.65255,71118
4.65993,67355
4.66732,63733
4.67468,82419
4.68207,178537
4.68943,327108
4.69682,381676
4.70418,317631
4.71157,234382
4.71895,149627
4.72632,99546
4.7337,72987
4.74107,58857
4.74845,54051
4.75583,56657
4.7632,80460
4.77058,212908
4.77795,576838
4.78533,835730
4.7927,772057
4.80008,569944
4.80747,350888
4.81483,206879
4.82222,126802
4.82958,87035
4.83697,68404
4.84435,62376
4.85172,61920
4.8591,64321
4.86647,68403
4.87385,66390
4.88122,63957
4.8886,60074
4.89598,60165
4.90335,59433
4.91073,56605
4.9181,53072
4.92548,49607
4.93287,49021
4.94023,53326
4.94762,54182
4.95498,58425
4.96237,63825
4.96973,67287
4.97712,69931
4.9845,69197
4.99187,68389
4.99925,70775
5.00662,68574
5.014,64613
5.02138,63995
5.02875,59802
5.03613,54538
5.0435,50130
5.05088,52095
5.05825,77761
5.06563,195291
5.07302,368027
5.08038,395276
5.08777,288598
5.09513,177583
5.10252,128334
5.1099,147479
5.11727,172611
5.12465,140411
5.13202,95398
5.1394,65521
5.14677,53672
5.15415,52573
5.16153,51266
5.1689,48446
5.17628,45609
5.18365,46102
5.19103,48472
5.19842,51481
5.20578,54163
5.21317,52828
5.22053,51587
5.22792,53882
5.23528,58888
5.24267,55744
5.25005,53249
5.25742,54534
5.2648,59051
5.27217,59103
5.27955,52773
5.28692,49262
5.2943,44785
5.30168,45081
5.30905,48334
5.31643,51633
5.3238,58691
5.33118,61356
5.33857,57486
5.34593,51423
5.35332,47808
5.36068,48081
5.36807,47177
5.37543,47216
5.38282,47593
5.3902,50632
5.39757,57142
5.40495,66123
5.41232,70769
5.4197,66556
5.42708,60177
5.43445,59659
5.44183,70438
5.4492,91115
5.45658,95476
5.46395,84113
5.47133,70333
5.47872,61698
5.48608,56264
5.49347,51427
5.50083,51379
5.50822,62171
5.5156,77352
5.52297,79872
5.53035,66037
5.53772,59198
5.5451,56741
5.55247,55816
5.55985,49359
5.56723,47361
5.5746,46827
5.58198,54154
5.58935,61983
5.59673,61129
5.60412,56675
5.61148,54819
5.61887,53638
5.62623,50544
5.63362,47141
5.64098,47314
5.64837,48437
5.65575,47239
5.66312,47352
5.6705,50771
5.67787,51216
5.68525,49760
5.69263,49153
5.7,49465
5.70738,51384
5.71475,50991
5.72213,52841
5.7295,51355
5.73688,50060
5.74427,46674
5.75163,46386
5.75902,53901
5.76638,67512
5.77377,75070
5.78115,87282
5.78852,143561
5.7959,186133
5.80327,151043
5.81065,87986
5.81802,69910
5.8254,69273
5.83278,78017
5.84015,100315
5.84753,103873
5.8549,76794
5.86228,75191
5.86965,140306
5.87703,352000
5.88442,576586
5.89178,512717
5.89917,372542
5.90653,289651
5.91392,182152
5.9213,100737
5.92867,63636
5.93605,56127
5.94342,77839
5.9508,148919
5.95817,266365
5.96555,316993
5.97293,209460
5.9803,100888
5.98768,59347
5.99505,54492
6.00243,56231
6.00982,56408
6.01718,57680
6.02457,57029
6.03193,67775
6.03932,89969
6.04668,91720
6.05407,70473
6.06145,54401
6.06882,51862
6.0762,51129
6.08357,54269
6.09095,82826
6.09833,174266
6.1057,243376
6.11308,176925
6.12045,97282
6.12783,67699
6.1352,57862
6.14258,50728
6.14997,51224
6.15733,53380
6.16472,52225
6.17208,50167
6.17947,47445
6.18685,47302
6.19422,48827
6.2016,56145
6.20897,61729
6.21635,67665
6.22372,64963
6.2311,56781
6.23848,59900
6.24585,147581
6.25323,518971
6.2606,896185
6.26798,642672
6.27537,286864
6.28273,138229
6.29012,76092
6.29748,51949
6.30487,45439
6.31223,44194
6.31962,44554
6.327,47719
6.33437,49912
6.34175,50090
6.34912,47350
6.3565,43077
6.36388,40473
6.37125,39848
6.37863,43310
6.386,42999
6.39338,41905
6.40075,39535
6.40813,43161
6.41552,54982
6.42288,56892
6.43027,54590
6.43763,51210
6.44502,50860
6.45238,53571
6.45977,57365
6.46715,52038
6.47452,43921
6.4819,42651
6.48927,42883
6.49665,44900
6.50403,46686
6.5114,43872
6.51878,40190
6.52615,40633
6.53353,45738
6.5409,46506
6.54828,50703
6.55567,59239
6.56303,62625
6.57042,73420
6.57778,74247
6.58517,76589
6.59255,148377
6.59992,235330
6.6073,194530
6.61467,95601
6.62205,48788
6.62942,40367
6.6368,41100
6.64418,43503
6.65155,41452
6.65893,42729
6.6663,49298
6.67368,50115
6.68107,44894
6.68843,45346
6.69582,52109
6.70318,55623
6.71057,52554
6.71793,49080
6.72532,46263
6.7327,44479
6.74007,43085
6.74745,49126
6.75482,78414
6.7622,106496
6.76958,86626
6.77695,54621
6.78433,39784
6.7917,37812
6.79908,38910
6.80645,38187
6.81383,37000
6.82122,38213
6.82858,40896
6.83597,40054
6.84333,38068
6.85072,41001
6.8581,45486
6.86547,50943
6.87285,75157
6.88022,119612
6.8876,127561
6.89497,140965
6.90235,195431
6.90973,165560
6.9171,112624
6.92448,74810
6.93185,57636
6.93923,85795
6.94662,125524
6.95398,133597
6.96137,115250
6.96873,111933
6.97612,174660
6.98348,185699
6.99087,110596
6.99825,70435
7.00562,53538
7.013,45898
7.02037,50570
7.02775,57007
7.03512,50740
7.0425,41587
7.04988,44141
7.05725,57012
7.06463,66811
7.072,60303
7.07938,78019
7.08677,103751
7.09413,93022
7.10152,68177
7.10888,50157
7.11627,43307
7.12363,39444
7.13102,38315
7.1384,42622
7.14577,48802
7.15315,50455
7.16052,45323
7.1679,41703
7.17528,46194
7.18265,82468
7.19003,136431
7.1974,117669
7.20478,102729
7.21215,132339
7.21953,102007
7.22692,54964
7.23428,38971
7.24167,39441
7.24903,47628
7.25642,56679
7.2638,57026
7.27117,89755
7.27855,177438
7.28592,186620
7.2933,97037
7.30067,50977
7.30805,50270
7.31543,75534
7.3228,86218
7.33018,63271
7.33755,43003
7.34493,39711
7.35232,43199
7.35968,52318
7.36707,68833
7.37443,76214
7.38182,55944
7.38918,42167
7.39657,38656
7.40395,38762
7.41132,38473
7.4187,39951
7.42607,44444
7.43345,49509
7.44083,52310
7.4482,50399
7.45558,43500
7.46295,40555
7.47033,47088
7.4777,50066
7.48508,45088
7.49247,40159
7.49983,39853
7.50722,46936
7.51458,66422
7.52197,77312
7.52935,60547
7.53672,44637
7.5441,45309
7.55147,44615
7.55885,43887
7.56622,45314
7.5736,49939
7.58098,50247
7.58835,46989
7.59573,44973
7.6031,50982
7.61048,86180
7.61785,130045
7.62523,107833
7.63262,57879
7.63998,41007
7.64737,42001
7.65473,73523
7.66212,152851
7.6695,159396
7.67687,86925
7.68425,48887
7.69162,41528
7.699,39561
7.70637,37909
7.71375,38385
7.72113,41038
7.7285,43219
7.73588,42592
7.74325,40615
7.75063,42822
7.75802,42088
7.76538,41817
7.77277,40822
7.78013,39495
7.78752,39590
7.79488,40837
7.80227,41572
7.80965,45345
7.81702,56036
7.8244,62160
7.83177,49421
7.83915,41609
7.84653,40620
7.8539,40469
7.86128,46029
7.86865,58155
7.87603,96611
7.8834,120664
7.89078,101181
7.89817,89522
7.90553,67121
7.91292,49234
7.92028,49897
7.92767,52439
7.93505,48507
7.94242,44444
7.9498,45980
7.95717,44491
7.96455,40801
7.97192,46889
7.9793,63674
7.98668,68243
7.99405,87971
8.00143,124491
8.0088,119106
8.01618,92911
8.02357,65956
8.03093,68160
8.03832,69714
8.04568,50696
8.05307,40184
8.06043,44661
8.06782,56122
8.0752,55258
8.08257,49504
8.08995,53496
8.09732,56632
8.1047,53691
8.11208,51256
8.11945,52631
8.12683,51418
8.1342,48071
8.14158,49879
8.14895,48517
8.15633,48629
8.16372,45750
8.17108,37072
8.17847,34399
8.18583,34790
8.19322,36703
8.20058,38931
8.20797,44698
8.21535,59612
8.22272,58021
8.2301,43650
8.23747,35918
8.24485,33532
8.25223,33670
8.2596,33162
8.26698,33764
8.27435,33632
8.28173,33980
8.2891,33060
8.29648,34439
8.30387,36868
8.31123,39079
8.31862,41748
8.32598,43697
8.33337,40072
8.34075,37903
8.34812,40311
8.3555,44276
8.36287,57563
8.37025,98460
8.37762,121585
8.385,89070
8.39238,66650
8.39975,65767
8.40713,50769
8.4145,42272
8.42188,39524
8.42927,37625
8.43663,40055
8.44402,46523
8.45138,63426
8.45877,70473
8.46613,59346
8.47352,60202
8.4809,73621
8.48827,71780
8.49565,50481
8.50302,37511
8.5104,35757
8.51778,36183
8.52515,36445
8.53253,36413
8.5399,37239
8.54728,36920
8.55465,35396
8.56203,35730
8.56942,40213
8.57678,49599
8.58417,48103
8.59153,39448
8.59892,35616
8.6063,35079
8.61367,36403
8.62105,36947
8.62842,36477
8.6358,35586
8.64317,34064
8.65055,33431
8.65793,33689
8.6653,35596
8.67268,38726
8.68005,38801
8.68743,36883
8.69482,35613
8.70218,35740
8.70957,36578
8.71693,38265
8.72432,40212
8.73168,36929
8.73907,34896
8.74645,34864
8.75382,33853
8.7612,34169
8.76857,34243
8.77595,34714
8.78332,34113
8.7907,32690
8.79808,33294
8.80545,33708
8.81283,34277
8.8202,35895
8.82758,39903
8.83497,44695
8.84233,44766
8.84972,41968
8.85708,43003
8.86447,42074
8.87183,36682
8.87922,34242
8.8866,35263
8.89397,35873
8.90135,36566
8.90872,36869
8.9161,36041
8.92348,35437
8.93085,42987
8.93823,62631
8.9456,79059
8.95298,69881
8.96035,57334
8.96773,50832
8.97512,47956
8.98248,42547
8.98987,45866
8.99723,54109
9.00462,53886
9.012,44508
9.01937,40818
9.02675,40064
9.03412,39580
9.0415,39411
9.04887,39408
9.05625,36883
9.06363,35504
9.071,36506
9.07838,36031
9.08575,37635
9.09313,36946
9.10052,36386
9.10788,37335
9.11527,37992
9.12263,37016
9.13002,39427
9.13738,43060
9.14477,41518
9.15215,36413
9.15952,36968
9.1669,38368
9.17427,38816
9.18165,37244
9.18903,36590
9.1964,36480
9.20378,35393
9.21115,35255
9.21853,36826
9.2259,36636
9.23328,35116
9.24067,33237
9.24803,34174
9.25542,34276
9.26278,34817
9.27017,37361
9.27755,37168
9.28492,40935
9.2923,44377
9.29967,42092
9.30705,36516
9.31442,35141
9.3218,39591
9.32918,38997
9.33655,35944
9.34393,34756
9.3513,35984
9.35868,35715
9.36605,35339
9.37343,34186
9.38082,34432
9.38818,35058
9.39557,35212
9.40293,34929
9.41032,36192
9.4177,36710
9.42507,35233
9.43245,34718
9.43982,37350
9.4472,47587
9.45457,75994
9.46195,92017
9.46933,62239
9.4767,40036
9.48408,34804
9.49145,35346
9.49883,35304
9.50622,37069
9.51358,38455
9.52097,40428
9.52833,41340
9.53572,43237
9.54308,43393
9.55047,44036
9.55785,43813
9.56522,44981
9.5726,44465
9.57997,41041
9.58735,36907
9.59473,36241
9.6021,34203
9.60948,35987
9.61685,42699
9.62423,60564
9.6316,65356
9.63898,49942
9.64637,36999
9.65373,34623
9.66112,34009
9.66848,34582
9.67587,33252
9.68325,33897
9.69062,33992
9.698,34283
9.70537,33162
9.71275,33751
9.72012,34206
9.7275,33689
9.73488,33602
9.74225,33722
9.74963,34232
9.757,35654
9.76438,33977
9.77177,33292
9.77913,32726
9.78652,33474
9.79388,32651
9.80127,32643
9.80863,33762
9.81602,33081
9.8234,32959
9.83077,33285
9.83815,33678
9.84552,33130
9.8529,34829
9.86028,34260
9.86765,33139
9.87503,32611
9.8824,33934
9.88978,33553
9.89715,33836
9.90453,33879
9.91192,33996
9.91928,33655
9.92667,33916
9.93403,33719
9.94142,33403
9.94878,34556
9.95617,33197
9.96355,33828
9.97092,33004
9.9783,33211
9.98567,32789
9.99305,32768
10.0004,32699
10.0078,33371
10.0152,33883
10.0226,33655
10.0299,32195
10.0373,32826
10.0447,33217
10.0521,33338
10.0594,33797
10.0668,32686
10.0742,31924
10.0816,32868
10.089,32033
10.0963,32804
10.1037,33433
10.1111,33323
10.1185,32596
10.1258,33597
10.1332,33695
10.1406,33656
10.148,32358
10.1553,32673
10.1627,32468
10.1701,32411
10.1775,33048
10.1848,32130
10.1922,33377
10.1996,33318
10.207,33407
10.2143,33388
10.2217,33260
10.2291,33716
10.2365,32464
10.2439,33660
10.2512,34134
10.2586,34627
10.266,34271
10.2734,32634
10.2807,33099
10.2881,33512
10.2955,33143
10.3029,32479
10.3102,32923
10.3176,32812
10.325,32545
10.3324,33883
10.3397,34783
10.3471,34908
10.3545,35540
10.3619,39249
10.3693,39482
10.3766,36947
10.384,33868
10.3914,33722
10.3988,34694
10.4061,35627
10.4135,33604
10.4209,33045
10.4283,33051
10.4356,33101
10.443,33913
10.4504,37386
10.4578,43684
10.4651,46665
10.4725,42092
10.4799,36002
10.4873,33593
10.4947,32780
10.502,32414
10.5094,32090
10.5168,32974
10.5242,32716
10.5315,33038
10.5389,33719
10.5463,33040
10.5537,33740
10.561,33063
10.5684,33126
10.5758,33573
10.5832,35464
10.5905,42759
10.5979,52126
10.6053,49050
10.6127,39248
10.62,36887
10.6274,42946
10.6348,43860
10.6422,37521
10.6496,34566
10.6569,33360
10.6643,33465
10.6717,32739
10.6791,33351
10.6864,33534
10.6938,33241
10.7012,33099
10.7086,32769
10.7159,32678
10.7233,33114
10.7307,32673
10.7381,32692
10.7454,33027
10.7528,34152
10.7602,35000
10.7676,36947
10.775,39790
10.7823,39177
10.7897,37311
10.7971,34681
10.8045,34765
10.8118,36486
10.8192,35378
10.8266,34074
10.834,34077
10.8413,32702
10.8487,32589
10.8561,32713
10.8635,33923
10.8708,33094
10.8782,33431
10.8856,33098
10.893,34429
10.9004,33785
10.9077,35852
10.9151,38191
10.9225,37730
10.9299,35413
10.9372,33541
10.9446,33883
10.952,33099
10.9594,33208
10.9667,33342
10.9741,33607
10.9815,33776
10.9889,33027
10.9962,32712
11.0036,32660
11.011,32652
11.0184,33337
11.0258,33151
11.0331,33461
11.0405,33257
11.0479,33618
11.0553,33962
11.0626,35362
11.07,39820
11.0774,47220
11.0848,43847
11.0921,37604
11.0995,35525
11.1069,34453
11.1143,34562
11.1216,33517
11.129,35011
11.1364,33784
11.1438,33850
11.1511,32971
11.1585,34130
11.1659,33454
11.1733,33089
11.1807,34159
11.188,34686
11.1954,33995
11.2028,34566
11.2102,33633
11.2175,33622
11.2249,33850
11.2323,33651
11.2397,33299
11.247,34135
11.2544,33031
11.2618,32870
11.2692,32183
11.2765,33467
11.2839,32966
11.2913,33582
11.2987,34634
11.3061,37282
11.3134,41389
11.3208,39554
11.3282,34114
11.3356,33647
11.3429,33458
11.3503,33363
11.3577,33439
11.3651,33674
11.3724,33162
11.3798,33476
11.3872,32701
11.3946,32733
11.4019,33484
11.4093,34179
11.4167,34708
11.4241,32382
11.4315,32589
11.4388,33100
11.4462,32853
11.4536,32775
11.461,34061
11.4683,35481
11.4757,35852
11.4831,35914
11.4905,36577
11.4978,36936
11.5052,34882
11.5126,33045
11.52,34047
11.5273,35554
11.5347,38423
11.5421,36639
11.5495,34498
11.5568,33699
11.5642,33972
11.5716,34030
11.579,33718
11.5864,34317
11.5937,34331
11.6011,33586
11.6085,33912
11.6159,33475
11.6232,33397
11.6306,32913
11.638,33534
11.6454,33379
11.6527,33806
11.6601,33380
11.6675,34888
11.6749,36194
11.6822,35571
11.6896,34206
11.697,35350
11.7044,35255
11.7118,34347
11.7191,33252
11.7265,33072
11.7339,33733
11.7413,32882
11.7486,33054
11.756,33887
11.7634,32881
11.7708,32232
11.7781,33360
11.7855,32787
11.7929,33019
11.8003,33923
11.8076,34631
11.815,35501
11.8224,33997
11.8298,34085
11.8372,34834
11.8445,33943
11.8519,33300
11.8593,32305
11.8667,33466
11.874,32386
11.8814,33035
11.8888,32391
11.8962,33475
11.9035,33477
11.9109,33885
11.9183,34056
11.9257,33766
11.933,33341
11.9404,33649
11.9478,33376
11.9552,33774
11.9625,33528
11.9699,33909
11.9773,33981
11.9847,33686
11.9921,33624
11.9994,34445
12.0068,33791
12.0142,34092
12.0216,34568
12.0289,33527
12.0363,34053
12.0437,33812
12.0511,33795
12.0584,34527
12.0658,34851
12.0732,35313
12.0806,34445
12.0879,33781
12.0953,34356
12.1027,34594
12.1101,34282
12.1175,34924
12.1248,34031
12.1322,34132
12.1396,34818
12.147,34319
12.1543,34271
12.1617,34866
12.1691,34402
12.1765,35496
12.1838,34507
12.1912,34471
12.1986,34224
12.206,34574
12.2133,33958
12.2207,35401
12.2281,34373
12.2355,33714
12.2429,32479
12.2502,34375
12.2576,34735
12.265,34536
12.2724,34525
12.2797,34564
12.2871,35487
12.2945,34757
12.3019,35169
12.3092,34797
12.3166,35567
12.324,34897
12.3314,34317
12.3387,34737
12.3461,33546
12.3535,33890
12.3609,34013
12.3682,34209
12.3756,33132
12.383,35182
12.3904,33366
12.3978,33880
12.4051,33812
12.4125,34651
12.4199,35565
12.4273,37106
12.4346,37425
12.442,36205
12.4494,34756
12.4568,34792
12.4641,35200
12.4715,36030
12.4789,34908
12.4863,35009
12.4936,34580
12.501,34983
12.5084,34589
12.5158,34718
12.5232,36020
12.5305,35737
12.5379,36088
12.5453,35064
12.5527,34827
12.56,35256
12.5674,35811
12.5748,35092
12.5822,34383
12.5895,35849
12.5969,34550
12.6043,34968
12.6117,34696
12.619,34838
12.6264,35413
12.6338,35011
12.6412,35580
12.6486,35959
12.6559,35856
12.6633,36615
12.6707,35806
12.6781,36287
12.6854,35839
12.6928,35228
12.7002,34938
12.7076,35323
12.7149,34565
12.7223,34910
12.7297,35768
12.7371,34467
12.7444,35730
12.7518,36090
12.7592,35210
12.7666,34959
12.774,35252
12.7813,35420
12.7887,35426
12.7961,35255
12.8035,34928
12.8108,36360
12.8182,35487
12.8256,36321
12.833,36382
12.8403,36412
12.8477,36653
12.8551,36101
12.8625,35764
12.8698,35817
12.8772,35419
12.8846,35526
12.892,36349
12.8993,35528
12.9067,35867
12.9141,35853
12.9215,35705
12.9289,36011
12.9362,36167
12.9436,35742
12.951,36114
12.9584,35330
12.9657,35747
12.9731,35737
12.9805,35852
12.9879,35589
12.9952,35894
13.0026,36089
13.01,35315
13.0174,36473
13.0247,35930
13.0321,34697
13.0395,35494
13.0469,35320
13.0543,35099
13.0616,35672
13.069,36024
13.0764,35814
13.0838,37195
13.0911,39310
13.0985,39821
13.1059,37520
13.1133,36061
13.1206,35784
13.128,35757
13.1354,36544
13.1428,36004
13.1501,35911
13.1575,36108
13.1649,36445
13.1723,37090
13.1797,36240
13.187,36033
13.1944,37039
13.2018,36483
13.2092,35175
13.2165,35670
13.2239,35694
13.2313,35355
13.2387,36118
13.246,36090
13.2534,36026
13.2608,35385
13.2682,35865
13.2755,35521
13.2829,35595
13.2903,35026
13.2977,34505
13.305,35336
13.3124,36279
13.3198,36259
13.3272,35737
13.3346,35231
13.3419,36188
13.3493,35623
13.3567,35801
13.3641,35368
13.3714,36233
13.3788,35617
13.3862,36337
13.3936,36315
13.4009,36829
13.4083,37575
13.4157,36626
13.4231,36029
13.4304,36344
13.4378,36616
13.4452,36845
13.4526,36779
13.46,36434
13.4673,36539
13.4747,35964
13.4821,37336
13.4895,37541
13.4968,37379
13.5042,36141
13.5116,36408
13.519,37435
13.5263,37269
13.5337,36916
13.5411,36612
13.5485,36798
13.5558,36338
13.5632,35495
13.5706,35432
13.578,36329
13.5854,37702
13.5927,37718
13.6001,38373
13.6075,37064
13.6149,36342
13.6222,36631
13.6296,36963
13.637,36219
13.6444,35505
13.6517,35745
13.6591,35696
13.6665,35480
13.6739,35357
13.6812,35857
13.6886,36781
13.696,36287
13.7034,37058
13.7107,37209
13.7181,37171
13.7255,38179
13.7329,37519
13.7403,36859
13.7476,37529
13.755,37374
13.7624,36696
13.7698,36613
13.7771,36927
13.7845,36242
13.7919,37086
13.7993,38145
13.8066,38470
13.814,37780
13.8214,37076
13.8288,36358
13.8361,36430
13.8435,37055
13.8509,36414
13.8583,35894
13.8657,36753
13.873,36452
13.8804,38166
13.8878,42265
13.8952,43310
13.9025,40858
13.9099,39984
13.9173,39218
13.9247,38713
13.932,38117
13.9394,38546
13.9468,38422
13.9542,38280
13.9615,37671
13.9689,37652
13.9763,38662
13.9837,38808
13.9911,38300
13.9984,37175
14.0058,37714
14.0132,37937
14.0206,38263
14.0279,37264
14.0353,37476
14.0427,37198
14.0501,37968
14.0574,37671
14.0648,38177
14.0722,37579
14.0796,37713
14.0869,38043
14.0943,38574
14.1017,37789
14.1091,38403
14.1164,38469
14.1238,38433
14.1312,38445
14.1386,37708
14.146,38297
14.1533,38104
14.1607,38107
14.1681,38503
14.1755,38345
14.1828,38727
14.1902,37707
14.1976,37628
14.205,38583
14.2123,37615
14.2197,38977
14.2271,37985
14.2345,38146
14.2418,38029
14.2492,38184
14.2566,37917
14.264,37116
14.2714,37710
14.2787,37902
14.2861,37776
14.2935,37671
14.3009,38871
14.3082,38628
14.3156,38724
14.323,38669
14.3304,38574
14.3377,39407
14.3451,41480
14.3525,43372
14.3599,42491
14.3672,41061
14.3746,41411
14.382,40613
14.3894,40401
14.3968,40408
14.4041,39540
14.4115,39773
14.4189,39792
14.4263,38911
14.4336,38724
14.441,39289
14.4484,39780
14.4558,50213
14.4631,63547
14.4705,59087
14.4779,47984
14.4853,45138
14.4926,43193
14.5,41710
14.5074,42328
14.5148,41461
14.5222,41069
14.5295,40725
14.5369,41028
14.5443,40398
14.5517,40411
14.559,40703
14.5664,40533
14.5738,40937
14.5812,40386
14.5885,40777
14.5959,41442
14.6033,41709
14.6107,41961
14.618,41426
14.6254,40511
14.6328,40472
14.6402,40555
14.6475,41231
14.6549,41026
14.6623,39780
14.6697,40375
14.6771,40907
14.6844,40948
14.6918,40249
14.6992,40275
14.7066,40739
14.7139,40403
14.7213,42214
14.7287,40891
14.7361,41448
14.7434,40694
14.7508,40767
14.7582,41198
14.7656,41637
14.7729,41358
14.7803,41952
14.7877,42110
14.7951,42324
14.8025,41119
14.8098,41235
14.8172,41719
14.8246,41026
14.832,41852
14.8393,42038
14.8467,41710
14.8541,41582
14.8615,42002
14.8688,42278
14.8762,41094
14.8836,41646
14.891,41384
14.8983,40899
14.9057,41384
14.9131,42264
14.9205,42505
14.9279,42927
14.9352,42113
14.9426,42458
14.95,42184
14.9574,42213
14.9647,42787
14.9721,43834
14.9795,43576
14.9869,43669
14.9942,43611
15.0016,42845
15.009,42518
15.0164,42779
15.0237,43220
15.0311,44208
15.0385,43400
15.0459,42745
15.0532,43796
15.0606,42895
15.068,42680
15.0754,42456
15.0828,42381
15.0901,42408
15.0975,42529
15.1049,43082
15.1123,42038
15.1196,43005
15.127,43040
15.1344,43558
15.1418,43507
15.1491,45051
15.1565,43623
15.1639,44422
15.1713,46207
15.1786,45989
15.186,47815
15.1934,47633
15.2008,48372
15.2082,47344
15.2155,48105
15.2229,47334
15.2303,46606
15.2377,46072
15.245,46171
15.2524,45103
15.2598,45779
15.2672,46297
15.2745,45461
15.2819,44413
15.2893,44715
15.2967,45490
15.304,45628
15.3114,45321
15.3188,46394
15.3262,45851
15.3336,46469
15.3409,46440
15.3483,46393
15.3557,46789
15.3631,47741
15.3704,46042
15.3778,46509
15.3852,47102
15.3926,47358
15.3999,47258
15.4073,47825
15.4147,47483
15.4221,47124
15.4294,48391
15.4368,48342
15.4442,48555
15.4516,49813
15.4589,52182
15.4663,51789
15.4737,51424
15.4811,50493
15.4885,49940
15.4958,49455
15.5032,49468
15.5106,48528
15.518,49859
15.5253,50254
15.5327,49261
15.5401,49959
15.5475,50666
15.5548,53169
15.5622,58069
15.5696,57038
15.577,53015
15.5843,52297
15.5917,51991
15.5991,50877
15.6065,51922
15.6139,52493
15.6212,53572
15.6286,53049
15.636,53504
15.6434,52784
15.6507,52309
15.6581,53317
15.6655,52635
15.6729,52453
15.6802,53578
15.6876,53415
15.695,53407
15.7024,51957
15.7097,52171
15.7171,50977
15.7245,52110
15.7319,51095
15.7393,52684
15.7466,53227
15.754,53112
15.7614,52451
15.7688,52257
15.7761,52197
15.7835,51919
15.7909,53197
15.7983,51605
15.8056,52834
15.813,53062
15.8204,53439
15.8278,53016
15.8351,52644
15.8425,52546
15.8499,52923
15.8573,52632
15.8646,53701
15.872,53455
15.8794,54579
15.8868,54838
15.8942,54513
15.9015,54434
15.9089,54137
15.9163,53217
15.9237,54621
15.931,54514
15.9384,55263
15.9458,54637
15.9532,55519
15.9605,56217
15.9679,55857
15.9753,55640
15.9827,57049
15.99,57627
15.9974,58252
16.0048,57674
16.0122,57903
16.0195,57141
16.0269,58088
16.0343,57698
16.0417,58146
16.0491,59415
16.0564,58031
16.0638,57519
16.0712,57073
16.0786,57494
16.0859,57149
16.0933,58777
16.1007,61232
16.1081,62327
16.1154,61930
16.1228,61461
16.1302,61359
16.1376,60244
16.145,59695
16.1523,60239
16.1597,60552
16.1671,59126
16.1745,60350
16.1818,60693
16.1892,62093
16.1966,62439
16.2039,62141
16.2113,62023
16.2187,60323
16.2261,60682
16.2335,61071
16.2408,61592
16.2482,62452
16.2556,62756
16.263,61831
16.2704,62433
16.2777,61710
16.2851,60886
16.2925,61879
16.2998,61905
16.3072,61932
16.3146,61632
16.322,61775
16.3294,61880
16.3367,62775
16.3441,62364
16.3515,64463
16.3589,63861
16.3662,64195
16.3736,64865
16.381,63013
16.3884,62493
16.3957,62366
16.4031,62799
16.4105,61482
16.4179,62743
16.4252,63890
16.4326,61929
16.44,62997
16.4474,64009
16.4548,64420
16.4621,63618
16.4695,63118
16.4769,64438
16.4842,64420
16.4916,64323
16.499,65763
16.5064,65224
16.5138,65109
16.5211,64214
16.5285,64080
16.5359,63885
16.5433,65295
16.5507,65967
16.558,63766
16.5654,64382
16.5728,64917
16.5802,65810
16.5875,67331
16.5949,67481
16.6023,70216
16.6096,73642
16.617,76603
16.6244,75340
16.6318,72183
16.6392,70984
16.6465,69723
16.6539,68424
16.6613,66294
16.6687,65416
16.6761,66935
16.6834,68345
16.6908,69080
16.6982,69567
16.7055,70256
16.7129,68597
16.7203,68915
16.7277,67467
16.7351,68084
16.7424,66375
16.7498,68147
16.7572,69042
16.7646,70136
16.7719,69070
16.7793,67690
16.7867,67313
16.7941,66671
16.8014,67904
16.8088,67743
16.8162,66874
16.8236,68070
16.831,66967
16.8383,67726
16.8457,68539
16.8531,68200
16.8605,67811
16.8678,67544
16.8752,68413
16.8826,67470
16.8899,68840
16.8973,68030
16.9047,67491
16.9121,67612
16.9195,66565
16.9268,68614
16.9342,68533
16.9416,68058
16.949,69035
16.9564,69000
16.9637,68928
16.9711,67240
16.9785,68953
16.9858,68953
16.9932,69841
17.0006,69513
17.008,70054
17.0154,70146
17.0227,71324
17.0301,71599
17.0375,71388
17.0449,72417
17.0522,73578
17.0596,71043
17.067,71964
17.0744,72384
17.0818,71308
17.0891,72989
17.0965,74007
17.1039,73851
17.1112,73624
17.1186,72991
17.126,72689
17.1334,71605
17.1408,72382
17.1481,74468
17.1555,72997
17.1629,70981
17.1703,72184
17.1776,71858
17.185,70427
17.1924,70692
17.1998,71818
17.2071,71303
17.2145,72376
17.2219,70358
17.2293,71259
17.2367,71421
17.244,69356
17.2514,70689
17.2588,70879
17.2662,71091
17.2735,71876
17.2809,71274
17.2883,73132
17.2956,72168
17.303,72074
17.3104,71856
17.3178,72302
17.3252,71312
17.3325,72309
17.3399,72887
17.3473,73229
17.3547,72242
17.3621,71748
17.3694,71422
17.3768,70604
17.3842,71608
17.3915,71136
17.3989,72113
17.4063,71091
17.4137,70612
17.4211,71311
17.4284,72321
17.4358,72227
17.4432,72411
17.4506,70740
17.4579,72458
17.4653,72329
17.4727,72075
17.4801,71771
17.4875,73138
