D:\Data GC-MS\2017\ST\BZ\BZ 10%.D 09 Feb 17  10:42 am
Start of data points
1.29388,6149078
1.30063,5920874
1.30737,5729861
1.31412,5592859
1.32085,5401953
1.3276,5232576
1.33435,5114148
1.34108,4989719
1.34783,4901203
1.35457,4840705
1.36132,4786386
1.36805,4787708
1.3748,4787909
1.38155,4806550
1.38828,4842268
1.39503,4868245
1.40177,4910715
1.40852,4960039
1.41525,5008616
1.422,5046954
1.42873,5102747
1.43548,5171767
1.44223,5223085
1.44897,5287556
1.45572,5375377
1.46245,5411800
1.4692,5430526
1.47593,6070579
1.48268,11922989
1.48943,13928460
1.51028,24393962
1.51767,24412950
1.52503,24272586
1.53242,24339976
1.5398,26291912
1.54717,26764460
1.55455,26430766
1.56192,26072408
1.5693,26079746
1.57668,25471024
1.58405,24692782
1.59143,24254570
1.5988,24001600
1.60618,25059752
1.61355,24580522
1.62093,23703018
1.62832,22860694
1.63568,22282722
1.64307,25083032
1.65043,28229300
1.65782,27636052
1.6652,26739780
1.67257,25880508
1.67995,25194064
1.68732,24552982
1.6947,23929120
1.70207,23363362
1.70945,22790872
1.71683,22201164
1.7242,21546934
1.73158,20903318
1.73895,20492200
1.74633,20151178
1.7537,19482792
1.76108,20188746
1.76847,21612452
1.77583,24052770
1.78322,28152266
1.79058,31980402
1.79797,32396666
1.80535,31762644
1.81272,31004014
1.8201,30266462
1.82747,29435292
1.83485,28675800
1.84222,28174314
1.8496,28786226
1.85698,28752008
1.86435,28029586
1.87173,27298114
1.8791,26567510
1.88648,26085576
1.89387,25514990
1.90123,24813890
1.90862,24056594
1.91598,23178102
1.92337,22247296
1.93073,21398004
1.93812,21705474
1.9455,21770274
1.95287,20818804
1.96025,19703292
1.96762,18855880
1.975,18142822
1.98238,17933768
1.98975,17734260
1.99713,18140488
2.0045,17600406
2.01188,16727640
2.01925,16491663
2.02663,15782258
2.03402,14958462
2.04138,14395657
2.04877,13753246
2.05613,12810468
2.06352,11772962
2.0709,10962290
2.07827,11396380
2.08565,12575395
2.09302,12069155
2.1004,11135719
2.10777,10223373
2.11515,9585665
2.12253,9661775
2.1299,10695106
2.13728,13314596
2.14465,13783291
2.15203,13275193
2.15942,12856170
2.16678,11955156
2.17417,11077978
2.18153,10200738
2.18892,9326922
2.19628,8513432
2.20367,7760051
2.21105,7080187
2.21842,6417762
2.2258,5779655
2.23317,5215253
2.24055,4681700
2.24793,4213959
2.2553,3865466
2.26268,3598960
2.27005,3245113
2.27743,2838288
2.2848,2470396
2.29218,2171431
2.29957,2032361
2.30693,2643079
2.31432,4720083
2.32168,5814121
2.32907,5627762
2.33643,5165641
2.34382,4782264
2.3512,4456502
2.35857,4174723
2.36595,4028736
2.37332,3890083
2.3807,3767240
2.38808,5532432
2.39545,10813289
2.40283,14301481
2.4102,17515764
2.41758,18764600
2.42495,18319210
2.43233,18055406
2.43972,17878472
2.44708,16868834
2.45447,15623467
2.46183,14402897
2.46922,13246986
2.4766,12683878
2.48397,14683703
2.49135,16845528
2.49872,16452622
2.5061,15347740
2.51347,14162746
2.52085,13069656
2.52823,11903883
2.5356,10761898
2.54298,9707914
2.55035,8788212
2.55773,7991257
2.56512,7738978
2.57248,8226269
2.57987,8279542
2.58723,7968256
2.59462,8054508
2.60198,8503179
2.60937,8163098
2.61675,7878788
2.62412,7902813
2.6315,7573695
2.63887,7025869
2.64625,6366058
2.65363,5703719
2.661,5131386
2.66838,4584400
2.67575,4158277
2.68313,4038867
2.6905,3824876
2.69788,3914809
2.70527,5668981
2.71263,7408675
2.72002,7483868
2.72738,6969617
2.73477,6567065
2.74215,7017803
2.74952,8241131
2.7569,9435666
2.76427,9802303
2.77165,9425655
2.77902,8960292
2.7864,8471791
2.79378,7810352
2.80115,7298263
2.80853,6688298
2.8159,6019862
2.82328,5823338
2.83067,5837255
2.83803,5399157
2.84542,4834788
2.85278,4482008
2.86017,4570406
2.86753,4712090
2.87492,4432601
2.8823,3955481
2.88967,3460957
2.89705,3043979
2.90442,2632290
2.9118,2330288
2.91917,2084077
2.92655,1835144
2.93393,1873921
2.9413,2569988
2.94868,3837151
2.95605,5315057
2.96343,5760301
2.97082,5292748
2.97818,4765597
2.98557,4306497
2.99293,3808619
3.00032,3416113
3.00768,3244114
3.01507,3341418
3.02245,3431884
3.02982,3348772
3.0372,3572905
3.04457,3730613
3.05195,3438686
3.05933,3245731
3.0667,3499798
3.07408,3653717
3.08145,3334085
3.08883,2961353
3.0962,2607396
3.10358,2243838
3.11097,1970401
3.11833,1931980
3.12572,2284792
3.13308,2536748
3.14047,2419873
3.14785,2159226
3.15522,1912064
3.1626,1667740
3.16997,1453948
3.17735,1291202
3.18472,1280902
3.1921,1252069
3.19948,1199381
3.20685,1214609
3.21423,1260283
3.2216,1293076
3.22898,1258691
3.23637,1159154
3.24373,1052212
3.25112,983022
3.25848,924945
3.26587,884744
3.27323,873852
3.28062,1382531
3.288,2600464
3.29537,3341533
3.30275,3352598
3.31012,3293620
3.3175,3232930
3.32488,3144798
3.33225,3190243
3.33963,3161958
3.347,3038960
3.35438,2854530
3.36175,2594491
3.36913,2373045
3.37652,2316909
3.38388,2679104
3.39127,3802032
3.39863,4946004
3.40602,5433678
3.4134,6057689
3.42077,11286096
3.42815,24387862
3.43552,30245140
3.4429,31636234
3.45027,31428864
3.45765,30565894
3.46503,29455260
3.4724,28256242
3.47978,27110540
3.48715,26338546
3.49453,24973424
3.5019,23002852
3.50928,20115826
3.51667,16909650
3.52403,13424096
3.53142,10615758
3.53878,8355910
3.54617,6702060
3.55355,5835741
3.56092,5104573
3.5683,4409673
3.57567,3791121
3.58305,3194812
3.59042,2565309
3.5978,2078004
3.60518,1675101
3.61255,1337587
3.61993,1081963
3.6273,866619
3.63468,790905
3.64207,858638
3.64943,927263
3.65682,1145738
3.66418,1599461
3.67157,1866964
3.67893,1820289
3.68632,1889851
3.6937,2162444
3.70107,2345715
3.70845,2359016
3.71582,2316325
3.7232,2149502
3.73058,1879558
3.73795,1654214
3.74533,1560046
3.7527,1604453
3.76008,1838253
3.76745,2042957
3.77483,2266228
3.78222,3425966
3.78958,4866274
3.79697,4988820
3.80433,4562227
3.81172,4114031
3.8191,3774223
3.82647,3375767
3.83385,2878742
3.84122,2456293
3.8486,2043735
3.85597,1768397
3.86335,1922628
3.87073,2182793
3.8781,2111814
3.88548,1829660
3.89285,1550299
3.90023,1486467
3.90762,1678219
3.91498,2100412
3.92237,2471233
3.92973,2385125
3.93712,2098169
3.94448,1825166
3.95187,1547968
3.95925,1370929
3.96662,1250233
3.974,1132194
3.98137,922380
3.98875,731764
3.99613,585423
4.0035,498658
4.01088,446648
4.01825,406248
4.02563,382217
4.033,364104
4.04038,408044
4.04777,554375
4.05513,700743
4.06252,822902
4.06988,886244
4.07727,829278
4.08463,715114
4.09202,652102
4.0994,664512
4.10677,729121
4.11415,798052
4.12152,942499
4.1289,1119646
4.13628,1157453
4.14365,1086375
4.15103,1043237
4.1584,952984
4.16578,828212
4.17315,740412
4.18053,783173
4.18792,845235
4.19528,990786
4.20267,1531058
4.21003,2030970
4.21742,2083390
4.2248,1888291
4.23217,1566896
4.23955,1339517
4.24692,1264518
4.2543,1216195
4.26167,1054490
4.26905,901482
4.27643,819760
4.2838,769103
4.29118,742676
4.29855,732544
4.30593,770762
4.31332,786312
4.32068,752324
4.32807,702970
4.33543,641045
4.34282,584889
4.35018,574760
4.35757,567812
4.36495,570454
4.37232,532878
4.3797,497486
4.38707,489056
4.39445,540705
4.40183,650463
4.4092,718847
4.41658,729675
4.42395,747024
4.43133,733803
4.4387,670508
4.44608,592375
4.45347,583936
4.46083,648461
4.46822,693912
4.47558,690620
4.48297,658147
4.49035,638965
4.49772,610958
4.5051,604456
4.51247,633495
4.51985,645914
4.52722,1103053
4.5346,5422778
4.54198,16168116
4.54935,23017478
4.55673,24385556
4.5641,22402076
4.57148,19221856
4.57887,15211881
4.58623,10954437
4.59362,6611606
4.60098,3562734
4.60837,2024413
4.61573,1359647
4.62312,3428875
4.6305,13636597
4.63787,27582184
4.64525,33989232
4.65262,36011196
4.66,35876312
4.66737,32535764
4.67475,24642594
4.68213,14820952
4.6895,7579468
4.69688,3928150
4.70425,2250458
4.71163,1394027
4.71902,1023757
4.72638,899544
4.73377,804773
4.74113,724772
4.74852,643256
4.75588,630789
4.76327,613323
4.77065,536944
4.77802,432518
4.7854,360979
4.79277,347703
4.80015,363686
4.80753,393921
4.8149,493707
4.82228,610517
4.82965,700703
4.83703,769309
4.8444,811258
4.85178,829354
4.85917,845915
4.86653,767898
4.87392,678277
4.88128,634921
4.88867,547698
4.89605,440719
4.90342,409080
4.9108,1370544
4.91817,6655597
4.92555,15985406
4.93292,20495158
4.9403,18472662
4.94768,13122687
4.95505,8028795
4.96243,4568443
4.9698,2975960
4.97718,2358791
4.98457,1677483
4.99193,1038987
4.99932,612221
5.00668,385499
5.01407,317162
5.02143,281691
5.02882,225592
5.0362,199544
5.04357,231641
5.05095,282992
5.05832,347697
5.0657,383490
5.07308,379516
5.08045,397073
5.08783,454787
5.0952,425643
5.10258,343162
5.10995,324294
5.11733,389940
5.12472,423948
5.13208,373835
5.13947,307227
5.14683,246161
5.15422,190886
5.1616,171429
5.16897,188856
5.17635,245876
5.18372,337763
5.1911,361094
5.19847,319242
5.20585,254109
5.21323,214284
5.2206,200294
5.22798,195301
5.23535,224035
5.24273,302177
5.2501,362475
5.25748,414762
5.26487,490604
5.27223,525130
5.27962,504979
5.28698,666709
5.29437,1439008
5.30175,2274627
5.30912,2219907
5.3165,1602834
5.32387,1020644
5.33125,649116
5.33862,439609
5.346,328364
5.35338,301259
5.36075,344187
5.36813,463848
5.3755,571652
5.38288,516574
5.39027,403280
5.39763,347930
5.40502,295544
5.41238,243087
5.41977,195420
5.42713,185567
5.43452,236586
5.4419,337824
5.44927,377326
5.45665,334131
5.46402,287225
5.4714,271142
5.47878,247878
5.48615,215784
5.49353,203426
5.5009,196315
5.50828,190743
5.51565,200312
5.52303,228338
5.53042,244521
5.53778,234229
5.54517,216348
5.55253,219647
5.55992,232174
5.5673,232968
5.57467,246233
5.58205,239816
5.58942,211137
5.5968,173225
5.60417,157850
5.61155,213091
5.61893,338164
5.6263,671664
5.63368,2153280
5.64105,4894012
5.64843,5869991
5.65582,4165350
5.66318,1976004
5.67057,832882
5.67793,509204
5.68532,471125
5.69268,561379
5.70007,712114
5.70745,596526
5.71482,898464
5.7222,4406973
5.72957,12618824
5.73695,18385796
5.74433,18464440
5.7517,15667406
5.75908,12196212
5.76645,6580919
5.77383,2374696
5.7812,792106
5.78858,371844
5.79597,833046
5.80333,3398745
5.81072,7512687
5.81808,8313472
5.82547,4990004
5.83285,1780522
5.84022,547617
5.8476,284252
5.85497,266032
5.86235,272787
5.86972,273837
5.8771,260061
5.88448,234974
5.89185,213093
5.89923,185910
5.9066,149987
5.91398,126092
5.92135,121141
5.92873,178070
5.93612,848239
5.94348,3737669
5.95087,7290409
5.95823,6849624
5.96562,3557488
5.973,1305251
5.98037,518242
5.98775,286249
5.99512,202169
6.0025,197219
6.00987,212226
6.01725,208083
6.02463,187289
6.032,161048
6.03938,163948
6.04675,198828
6.05413,246686
6.06152,260705
6.06888,266182
6.07627,247453
6.08363,357832
6.09102,2273133
6.09838,10170769
6.10577,21077370
6.11315,22750558
6.12052,13642656
6.1279,3682844
6.13527,979188
6.14265,361509
6.15003,184650
6.1574,142206
6.16478,127963
6.17215,140271
6.17953,166717
6.1869,179837
6.19428,179546
6.20167,160260
6.20903,127361
6.21642,114063
6.22378,124205
6.23117,136192
6.23855,126800
6.24592,112098
6.2533,151821
6.26067,269041
6.26805,313745
6.27542,233350
6.2828,194710
6.29018,222778
6.29755,288504
6.30493,305088
6.3123,229394
6.31968,156614
6.32707,143416
6.33443,150330
6.34182,150902
6.34918,164121
6.35657,167227
6.36393,141411
6.37132,122895
6.3787,138711
6.38607,165141
6.39345,157473
6.40082,143649
6.4082,254265
6.41558,527434
6.42295,672515
6.43033,1247197
6.4377,3356781
6.44508,4965448
6.45245,3324176
6.45983,1181176
6.46722,325457
6.47458,129612
6.48197,94786
6.48933,88322
6.49672,95951
6.50408,116638
6.51147,159357
6.51885,202222
6.52622,198350
6.5336,165947
6.54097,125874
6.54835,106589
6.55573,124154
6.5631,150874
6.57048,153544
6.57785,133232
6.58523,227896
6.5926,897264
6.59998,2247632
6.60737,2475277
6.61473,1329843
6.62212,424082
6.62948,141319
6.63687,92676
6.64425,89692
6.65162,91099
6.659,86361
6.66637,88435
6.67375,102567
6.68112,108251
6.6885,101471
6.69588,111640
6.70325,144797
6.71063,172498
6.718,302769
6.72538,625634
6.73277,837646
6.74013,1112584
6.74752,1461665
6.75488,1009732
6.76227,432354
6.76963,244621
6.77702,274260
6.7844,541777
6.79177,797237
6.79915,875532
6.80652,740600
6.8139,852933
6.82128,1398931
6.82865,1212218
6.83603,629017
6.8434,280193
6.85078,137772
6.85815,118584
6.86553,164183
6.87292,185463
6.88028,140350
6.88767,99840
6.89503,100809
6.90242,159884
6.9098,268438
6.91717,336364
6.92455,452707
6.93192,431498
6.9393,233643
6.94667,121803
6.95405,91004
6.96143,92125
6.9688,154389
6.97618,277081
6.98355,297451
6.99093,193814
6.99832,116874
7.00568,100726
7.01307,105274
7.02043,235179
7.02782,668029
7.03518,935867
7.04257,699472
7.04995,710100
7.05732,800240
7.0647,449431
7.07207,149409
7.07945,89215
7.08682,135290
7.0942,243285
7.10158,269184
7.10895,280422
7.11633,738875
7.1237,1303995
7.13108,936774
7.13847,328724
7.14583,178948
7.15322,372616
7.16058,581951
7.16797,447338
7.17533,181585
7.18272,90514
7.1901,98644
7.19747,146847
7.20485,177268
7.21222,185327
7.2196,203481
7.22698,149940
7.23435,87371
7.24173,76153
7.2491,111004
7.25648,260233
7.26385,451362
7.27123,403503
7.27862,226898
7.28598,152107
7.29337,117280
7.30073,88716
7.30812,87754
7.3155,108139
7.32287,105402
7.33025,86094
7.33762,79629
7.345,104517
7.35237,210785
7.35975,326095
7.36713,261776
7.3745,130730
7.38188,92041
7.38925,94120
7.39663,96120
7.40402,93697
7.41138,83628
7.41877,75200
7.42613,83560
7.43352,85349
7.44088,108876
7.44827,281708
7.45565,599907
7.46302,572511
7.4704,256287
7.47777,104604
7.48515,95876
7.49253,222822
7.4999,638435
7.50728,859804
7.51465,482876
7.52203,150726
7.5294,78303
7.53678,67600
7.54417,64256
7.55153,63630
7.55892,68198
7.56628,76311
7.57367,84173
7.58105,90582
7.58842,93523
7.5958,88547
7.60317,77322
7.61055,73644
7.61792,73392
7.6253,73265
7.63268,78131
7.64005,82155
7.64743,94366
7.6548,134208
7.66218,167080
7.66955,132244
7.67693,93190
7.68432,88022
7.69168,91119
7.69907,113662
7.70643,192601
7.71382,405090
7.7212,487068
7.72857,304977
7.73595,207014
7.74332,174782
7.7507,121036
7.75807,119265
7.76545,131257
7.77283,111322
7.7802,96130
7.78758,88586
7.79495,92471
7.80233,84627
7.80972,92687
7.81708,142454
7.82447,211571
7.83183,379918
7.83922,533282
7.84658,449406
7.85397,295679
7.86135,169908
7.86872,148339
7.8761,164102
7.88347,124732
7.89085,83177
7.89823,83872
7.9056,111308
7.91298,116023
7.92035,99033
7.92773,111926
7.9351,113019
7.94248,94267
7.94987,100274
7.95723,110419
7.96462,114859
7.97198,106701
7.97937,100397
7.98675,98335
7.99412,96574
8.0015,85660
8.00887,65260
8.01625,60240
8.02362,59928
8.031,65366
8.03838,71269
8.04575,84846
8.05313,112695
8.0605,111616
8.06788,80889
8.07527,64642
8.08263,60079
8.09002,57327
8.09738,56059
8.10477,56610
8.11213,56402
8.11952,54436
8.1269,57075
8.13427,58981
8.14165,61736
8.14902,69246
8.1564,82441
8.16378,79529
8.17115,66909
8.17853,66549
8.1859,77971
8.19328,111314
8.20065,232427
8.20803,370238
8.21542,287979
8.22278,139451
8.23017,110675
8.23753,99361
8.24492,82338
8.25228,68618
8.25967,62338
8.26705,65213
8.27442,73465
8.2818,90456
8.28917,110456
8.29655,109141
8.30393,85332
8.3113,96751
8.31868,127202
8.32605,108732
8.33343,74578
8.3408,58881
8.34818,57205
8.35557,56238
8.36293,56052
8.37032,55006
8.37768,55295
8.38507,55311
8.39245,54532
8.39982,55971
8.4072,62171
8.41457,70456
8.42195,63389
8.42932,55549
8.4367,51756
8.44408,53506
8.45145,55543
8.45883,58358
8.4662,58680
8.47358,55829
8.48097,55555
8.48833,52949
8.49572,54122
8.50308,55049
8.51047,56174
8.51783,56287
8.52522,53674
8.5326,53894
8.53997,54025
8.54735,52260
8.55472,55715
8.5621,56297
8.56948,55215
8.57685,52423
8.58423,51811
8.5916,51137
8.59898,50838
8.60635,50608
8.61373,51093
8.62112,51198
8.62848,50677
8.63587,51969
8.64323,53929
8.65062,52168
8.658,56214
8.66537,60813
8.67275,63734
8.68012,61662
8.6875,60479
8.69487,60514
8.70225,55031
8.70963,52986
8.717,52150
8.72438,52616
8.73175,51510
8.73913,52724
8.74652,52638
8.75388,55655
8.76127,76804
8.76863,150797
8.77602,303572
8.78338,402033
8.79077,284744
8.79815,183698
8.80552,138989
8.8129,117273
8.82027,106461
8.82765,100176
8.83502,96834
8.8424,86435
8.84978,78147
8.85715,75613
8.86453,73309
8.8719,72326
8.87928,69672
8.88667,68883
8.89403,67111
8.90142,65191
8.90878,63935
8.91617,62680
8.92353,64336
8.93092,64005
8.9383,61838
8.94567,61486
8.95305,61191
8.96042,63024
8.9678,64502
8.97518,65992
8.98255,61920
8.98993,60031
8.9973,58726
9.00468,60101
9.01205,59367
9.01943,59417
9.02682,60581
9.03418,59399
9.04157,61015
9.04893,60424
9.05632,57318
9.0637,56251
9.07107,55277
9.07845,55152
9.08582,54711
9.0932,54876
9.10057,56140
9.10795,56250
9.11533,57573
9.1227,62523
9.13008,61345
9.13745,58948
9.14483,55503
9.15222,54900
9.15958,55367
9.16697,53943
9.17433,52286
9.18172,52832
9.18908,52922
9.19647,54613
9.20385,53875
9.21122,54262
9.2186,54546
9.22597,54866
9.23335,53769
9.24073,53863
9.2481,55214
9.25548,54934
9.26285,54258
9.27023,58669
9.2776,71978
9.28498,92743
9.29237,93040
9.29973,72868
9.30712,58597
9.31448,54885
9.32187,52745
9.32925,55371
9.33662,55069
9.344,54493
9.35137,54419
9.35875,54055
9.36612,53401
9.3735,55265
9.38088,55051
9.38825,56113
9.39563,63075
9.403,69286
9.41038,76520
9.41775,74792
9.42513,65814
9.43252,61423
9.43988,60752
9.44727,73345
9.45463,90604
9.46202,89792
9.4694,70799
9.47677,61216
9.48415,57024
9.49152,56257
9.4989,55508
9.50627,52734
9.51365,53402
9.52103,52662
9.5284,53772
9.53578,52645
9.54315,50871
9.55053,51633
9.55792,51774
9.56528,51981
9.57267,51279
9.58003,52303
9.58742,51740
9.59478,52556
9.60217,52447
9.60955,51967
9.61692,52153
9.6243,51270
9.63167,50260
9.63905,52756
9.64643,50903
9.6538,51524
9.66118,51665
9.66855,51564
9.67593,50624
9.6833,50199
9.69068,50042
9.69807,50715
9.70543,51043
9.71282,51184
9.72018,52874
9.72757,52325
9.73495,52460
9.74232,52232
9.7497,51556
9.75707,52975
9.76445,51458
9.77182,52070
9.7792,53087
9.78658,54252
9.79395,54493
9.80133,56139
9.8087,54989
9.81608,52333
9.82347,52141
9.83083,51779
9.83822,52012
9.84558,52097
9.85297,51102
9.86033,50881
9.86772,51045
9.8751,50555
9.88247,52018
9.88985,52663
9.89722,53616
9.9046,52832
9.91198,52627
9.91935,51442
9.92673,51178
9.9341,50309
9.94148,50747
9.94885,51599
9.95623,51949
9.96362,50083
9.97098,51096
9.97837,51948
9.98573,50955
9.99312,49663
10.0005,49849
10.0079,50035
10.0153,50538
10.0226,49858
10.03,50371
10.0374,51965
10.0448,56941
10.0521,58621
10.0595,55201
10.0669,52175
10.0743,51712
10.0816,51902
10.089,53755
10.0964,54511
10.1038,53402
10.1111,51351
10.1185,50546
10.1259,49702
10.1333,49953
10.1407,51061
10.148,52139
10.1554,53563
10.1628,53601
10.1702,54109
10.1775,55943
10.1849,58747
10.1923,64543
10.1997,61787
10.207,54735
10.2144,54721
10.2218,54991
10.2292,57899
10.2365,55453
10.2439,52750
10.2513,51988
10.2587,51830
10.266,52058
10.2734,59539
10.2808,77974
10.2882,92635
10.2956,86522
10.3029,68520
10.3103,55571
10.3177,51492
10.3251,51406
10.3324,52117
10.3398,51098
10.3472,50677
10.3546,50917
10.3619,51209
10.3693,51707
10.3767,51606
10.3841,51367
10.3914,50490
10.3988,50635
10.4062,55051
10.4136,73035
10.421,107923
10.4283,117644
10.4357,88905
10.4431,68234
10.4505,76911
10.4578,89030
10.4652,73033
10.4726,56463
10.48,54029
10.4873,53421
10.4947,52834
10.5021,53696
10.5095,55142
10.5168,54747
10.5242,52892
10.5316,51453
10.539,49725
10.5464,50793
10.5537,51265
10.5611,50485
10.5685,52536
10.5759,55564
10.5832,60958
10.5906,73750
10.598,89025
10.6054,85388
10.6127,71308
10.6201,59111
10.6275,58259
10.6349,63706
10.6422,62300
10.6496,55376
10.657,53338
10.6644,51845
10.6717,51969
10.6791,52395
10.6865,51962
10.6939,53302
10.7013,55372
10.7086,56667
10.716,55662
10.7234,55810
10.7308,65431
10.7381,83607
10.7455,92276
10.7529,72951
10.7603,56702
10.7676,54631
10.775,54006
10.7824,55507
10.7898,54489
10.7971,53239
10.8045,53075
10.8119,53722
10.8193,51636
10.8267,52392
10.834,52045
10.8414,54290
10.8488,55192
10.8562,54394
10.8635,54061
10.8709,53049
10.8783,53463
10.8857,54816
10.893,53820
10.9004,55040
10.9078,59312
10.9152,71793
10.9225,76754
10.9299,71806
10.9373,62604
10.9447,66304
10.9521,89517
10.9594,119282
10.9668,100339
10.9742,68319
10.9816,58397
10.9889,58499
10.9963,60175
11.0037,64446
11.0111,64070
11.0184,63614
11.0258,68993
11.0332,83683
11.0406,94487
11.0479,78566
11.0553,62222
11.0627,59110
11.0701,58398
11.0775,59154
11.0848,58618
11.0922,57693
11.0996,59170
11.107,64359
11.1143,59741
11.1217,61638
11.1291,76574
11.1365,95832
11.1438,90632
11.1512,71348
11.1586,60612
11.166,60736
11.1733,58989
11.1807,59377
11.1881,59352
11.1955,57907
11.2028,55792
11.2102,54820
11.2176,56752
11.225,61712
11.2324,70828
11.2397,70485
11.2471,61077
11.2545,55872
11.2619,57691
11.2692,61299
11.2766,61577
11.284,61497
11.2914,71155
11.2987,86642
11.3061,94977
11.3135,104764
11.3209,109987
11.3282,89090
11.3356,67041
11.343,67034
11.3504,82555
11.3578,116368
11.3651,124240
11.3725,87828
11.3799,62773
11.3873,56921
11.3946,63053
11.402,71491
11.4094,67601
11.4168,59479
11.4241,58444
11.4315,60830
11.4389,62304
11.4463,59882
11.4536,57076
11.461,57171
11.4684,58673
11.4758,60160
11.4832,65842
11.4905,83516
11.4979,105716
11.5053,98651
11.5127,87324
11.52,103948
11.5274,101643
11.5348,73539
11.5422,59210
11.5495,54881
11.5569,53656
11.5643,55516
11.5717,54783
11.579,53211
11.5864,54203
11.5938,54441
11.6012,55587
11.6085,55987
11.6159,63456
11.6233,80073
11.6307,92671
11.6381,96066
11.6454,85845
11.6528,84520
11.6602,95337
11.6676,85563
11.6749,65499
11.6823,59440
11.6897,63568
11.6971,72264
11.7044,65849
11.7118,61591
11.7192,63074
11.7266,63706
11.7339,59560
11.7413,59089
11.7487,60465
11.7561,61023
11.7635,60114
11.7708,68264
11.7782,96933
11.7856,116113
11.793,100705
11.8003,95073
11.8077,118994
11.8151,120323
11.8225,94020
11.8298,72441
11.8372,70519
11.8446,83511
11.852,89806
11.8593,79472
11.8667,65059
11.8741,63714
11.8815,69488
11.8889,90768
11.8962,125565
11.9036,127768
11.911,92549
11.9184,73064
11.9257,73482
11.9331,74965
11.9405,66624
11.9479,67462
11.9552,77376
11.9626,91671
11.97,99765
11.9774,110840
11.9847,121710
11.9921,106139
11.9995,83886
12.0069,74986
12.0142,81499
12.0216,85284
12.029,80075
12.0364,81989
12.0438,88404
12.0511,80888
12.0585,65825
12.0659,61901
12.0733,70202
12.0806,78899
12.088,79033
12.0954,73539
12.1028,76472
12.1101,98661
12.1175,131341
12.1249,127416
12.1323,101433
12.1396,96666
12.147,89045
12.1544,78725
12.1618,72663
12.1692,69209
12.1765,67508
12.1839,65176
12.1913,65818
12.1987,65447
12.206,63556
12.2134,60684
12.2208,64515
12.2282,66125
12.2355,67691
12.2429,65716
12.2503,68985
12.2577,69974
12.265,69264
12.2724,67914
12.2798,63656
12.2872,65378
12.2946,72801
12.3019,75254
12.3093,73010
12.3167,68611
12.3241,65525
12.3314,66740
12.3388,65118
12.3462,65882
12.3536,76743
12.3609,78964
12.3683,71872
12.3757,63718
12.3831,64014
12.3904,68242
12.3978,68469
12.4052,67782
12.4126,60351
12.4199,56820
12.4273,59180
12.4347,65384
12.4421,71126
12.4495,64340
12.4568,62336
12.4642,74216
12.4716,84847
12.479,85097
12.4863,80325
12.4937,79283
12.5011,72712
12.5085,75448
12.5158,71605
12.5232,63186
12.5306,59138
12.538,61117
12.5453,64835
12.5527,67335
12.5601,68375
12.5675,74153
12.5749,88099
12.5822,85191
12.5896,87516
12.597,107690
12.6044,110950
12.6117,88532
12.6191,74642
12.6265,81824
12.6339,93550
12.6412,93226
12.6486,82823
12.656,80336
12.6634,89666
12.6707,102060
12.6781,101341
12.6855,97775
12.6929,102113
12.7003,95506
12.7076,97138
12.715,104918
12.7224,101821
12.7298,90761
12.7371,84459
12.7445,82538
12.7519,94408
12.7593,115820
12.7666,117970
12.774,93126
12.7814,75148
12.7888,78451
12.7961,91490
12.8035,87299
12.8109,79501
12.8183,79978
12.8257,80123
12.833,81480
12.8404,88877
12.8478,94042
12.8552,91821
12.8625,84256
12.8699,74577
12.8773,71450
12.8847,71435
12.892,73575
12.8994,75178
12.9068,86727
12.9142,109478
12.9215,114365
12.9289,98077
12.9363,79106
12.9437,66700
12.951,65781
12.9584,73624
12.9658,81676
12.9732,91713
12.9806,98011
12.9879,98732
12.9953,101276
13.0027,90314
13.0101,84844
13.0174,82970
13.0248,76188
13.0322,66032
13.0396,66882
13.0469,69709
13.0543,68101
13.0617,64624
13.0691,66620
13.0764,65583
13.0838,63231
13.0912,64206
13.0986,67134
13.106,67662
13.1133,74226
13.1207,79044
13.1281,73541
13.1355,70222
13.1428,81665
13.1502,88420
13.1576,76676
13.165,70719
13.1723,70111
13.1797,73313
13.1871,71405
13.1945,68704
13.2018,78252
13.2092,83578
13.2166,73340
13.224,68733
13.2314,68742
13.2387,70702
13.2461,69647
13.2535,70882
13.2609,71817
13.2682,68438
13.2756,65308
13.283,66555
13.2904,68607
13.2977,73480
13.3051,81191
13.3125,86550
13.3199,81797
13.3272,89744
13.3346,114106
13.342,123516
13.3494,99888
13.3567,75317
13.3641,71748
13.3715,71369
13.3789,67599
13.3863,62857
13.3936,68514
13.401,80865
13.4084,96563
13.4158,93404
13.4231,80926
13.4305,75562
13.4379,79566
13.4453,80997
13.4526,78707
13.46,76125
13.4674,77939
13.4748,75291
13.4821,68782
13.4895,68668
13.4969,68201
13.5043,70173
13.5117,72702
13.519,70814
13.5264,74933
13.5338,83788
13.5412,96626
13.5485,107607
13.5559,105964
13.5633,87833
13.5707,81672
13.578,89447
13.5854,93065
13.5928,98962
13.6002,96363
13.6075,90723
13.6149,94832
13.6223,90115
13.6297,83410
13.6371,78382
13.6444,76231
13.6518,77460
13.6592,75635
13.6666,68419
13.6739,65928
13.6813,71673
13.6887,79965
13.6961,77426
13.7034,68593
13.7108,65829
13.7182,71431
13.7256,78436
13.7329,79298
13.7403,78251
13.7477,79904
13.7551,82362
13.7624,90394
13.7698,94053
13.7772,81050
13.7846,74632
13.792,74423
13.7993,73685
13.8067,73616
13.8141,76383
13.8215,78375
13.8288,70999
13.8362,65734
13.8436,66917
13.851,73332
13.8583,78900
13.8657,77802
13.8731,75420
13.8805,77445
13.8878,71751
13.8952,68488
13.9026,69243
13.91,69650
13.9174,66380
13.9247,65199
13.9321,74117
13.9395,96009
13.9469,109524
13.9542,93387
13.9616,78550
13.969,77758
13.9764,73149
13.9837,68787
13.9911,67889
13.9985,67408
14.0059,65024
14.0132,61662
14.0206,60977
14.028,61433
14.0354,61867
14.0428,62432
14.0501,59780
14.0575,63604
14.0649,66858
14.0723,68186
14.0796,68922
14.087,66525
14.0944,66886
14.1018,65768
14.1091,65463
14.1165,69901
14.1239,86060
14.1313,110345
14.1386,106791
14.146,82243
14.1534,71001
14.1608,76769
14.1682,103259
14.1755,125541
14.1829,108786
14.1903,82850
14.1977,75263
14.205,77986
14.2124,73908
14.2198,75343
14.2272,96220
14.2345,124000
14.2419,119573
14.2493,90294
14.2567,75470
14.264,68703
14.2714,66714
14.2788,64413
14.2862,64955
14.2935,74134
14.3009,93036
14.3083,120361
14.3157,128239
14.3231,112553
14.3304,98594
14.3378,107047
14.3452,110937
14.3526,92050
14.3599,74456
14.3673,70580
14.3747,73562
14.3821,76590
14.3894,75193
14.3968,70465
14.4042,69447
14.4116,71844
14.4189,76080
14.4263,76729
14.4337,71829
14.4411,66939
14.4485,71040
14.4558,78002
14.4632,78040
14.4706,75530
14.478,71432
14.4853,72974
14.4927,75642
14.5001,74297
14.5075,76210
14.5148,78557
14.5222,76624
14.5296,73323
14.537,72727
14.5443,68683
14.5517,71365
14.5591,77064
14.5665,78754
14.5739,74798
14.5812,72072
14.5886,77205
14.596,91921
14.6034,97873
14.6107,84954
14.6181,76020
14.6255,74636
14.6329,73559
14.6402,70139
14.6476,68159
14.655,67980
14.6624,73154
14.6697,76898
14.6771,73803
14.6845,70997
14.6919,74015
14.6992,71714
14.7066,72807
14.714,75785
14.7214,73961
14.7288,69491
14.7361,67587
14.7435,67891
14.7509,67450
14.7583,69666
14.7656,68731
14.773,68775
14.7804,67290
14.7878,67766
14.7951,69207
14.8025,71429
14.8099,77215
14.8173,84934
14.8246,84749
14.832,78296
14.8394,73658
14.8468,72364
14.8542,73382
14.8615,78896
14.8689,92744
14.8763,91137
14.8837,82024
14.891,78554
14.8984,86831
14.9058,85573
14.9132,79494
14.9205,74384
14.9279,74214
14.9353,76060
14.9427,84462
14.95,88916
14.9574,82371
14.9648,78008
14.9722,91279
14.9796,108400
14.9869,109744
14.9943,101342
15.0017,93451
15.0091,93773
15.0164,107154
15.0238,110079
15.0312,96801
15.0386,84662
15.0459,80070
15.0533,85224
15.0607,85108
15.0681,80987
15.0754,81595
15.0828,87883
15.0902,97363
15.0976,93346
15.1049,87060
15.1123,84784
15.1197,85031
15.1271,80150
15.1345,75768
15.1418,74343
15.1492,73974
15.1566,77566
15.164,76907
15.1713,76179
15.1787,73304
15.1861,73125
15.1935,76958
15.2008,79537
15.2082,84928
15.2156,87175
15.223,82336
15.2303,78645
15.2377,77894
15.2451,77200
15.2525,73816
15.2599,73505
15.2672,78004
15.2746,80792
15.282,84741
15.2894,86490
15.2967,85263
15.3041,80325
15.3115,76081
15.3189,75696
15.3262,71654
15.3336,71434
15.341,72644
15.3484,72581
15.3557,73008
15.3631,72959
15.3705,72422
15.3779,75867
15.3853,75107
15.3926,74239
15.4,76623
15.4074,74289
15.4148,71887
15.4221,71876
15.4295,74354
15.4369,77067
15.4443,80420
15.4516,85896
15.459,84548
15.4664,84568
15.4738,78472
15.4811,75959
15.4885,74871
15.4959,72760
15.5033,74903
15.5106,74681
15.518,74996
15.5254,74179
15.5328,74448
15.5402,74288
15.5475,77670
15.5549,82561
15.5623,84649
15.5697,80775
15.577,73797
15.5844,72973
15.5918,74079
15.5992,79708
15.6065,83109
15.6139,84909
15.6213,81153
15.6287,77722
15.636,74972
15.6434,75990
15.6508,78719
15.6582,81817
15.6656,79046
15.6729,77243
15.6803,77491
15.6877,78486
15.6951,78951
15.7024,79976
15.7098,77412
15.7172,75486
15.7246,77111
15.7319,77435
15.7393,77582
15.7467,77109
15.7541,78110
15.7614,77376
15.7688,77136
15.7762,78354
15.7836,79051
15.791,78695
15.7983,81920
15.8057,84940
15.8131,81851
15.8205,78857
15.8278,79685
15.8352,80469
15.8426,80053
15.85,79847
15.8573,79921
15.8647,80428
15.8721,83210
15.8795,84326
15.8868,82902
15.8942,83815
15.9016,84884
15.909,86874
15.9164,86457
15.9237,83552
15.9311,83502
15.9385,81334
15.9459,81218
15.9532,81244
15.9606,81573
15.968,85310
15.9754,87818
15.9827,90201
15.9901,92677
15.9975,92667
16.0049,89901
16.0122,90034
16.0196,89743
16.027,89380
16.0344,93484
16.0417,93964
16.0491,93468
16.0565,93929
16.0639,94936
16.0712,93018
16.0786,93573
16.086,91849
16.0934,89834
16.1008,91188
16.1081,92090
16.1155,89873
16.1229,89942
16.1303,88152
16.1376,90326
16.145,93923
16.1524,97040
16.1598,94300
16.1671,90910
16.1745,91017
16.1819,94711
16.1893,92887
16.1967,91148
16.204,87219
16.2114,89641
16.2188,89288
16.2262,89445
16.2335,87549
16.2409,85090
16.2483,84600
16.2556,86000
16.263,85624
16.2704,86545
16.2778,86541
16.2852,86505
16.2925,85647
16.2999,87943
16.3073,89833
16.3147,88204
16.3221,88340
16.3294,86437
16.3368,87583
16.3442,86781
16.3516,85912
16.3589,86112
16.3663,87575
16.3737,86704
16.381,87108
16.3884,87370
16.3958,87352
16.4032,87213
16.4106,86979
16.4179,87532
16.4253,88832
16.4327,88819
16.4401,89830
16.4474,88952
16.4548,91724
16.4622,90546
16.4696,93361
16.4769,91392
16.4843,92058
16.4917,89692
16.4991,92276
16.5065,90670
16.5138,89725
16.5212,89637
16.5286,91459
16.536,93209
16.5433,94358
16.5507,95546
16.5581,92414
16.5655,97071
16.5728,93738
16.5802,94684
16.5876,91583
16.595,92557
16.6024,94506
16.6097,95388
16.6171,93740
16.6245,91811
16.6319,90895
16.6392,91555
16.6466,90598
16.654,92534
16.6613,93686
16.6687,92285
16.6761,91696
16.6835,93076
16.6909,92835
16.6982,92304
16.7056,91796
16.713,94057
16.7204,94202
16.7278,93818
16.7351,94853
16.7425,95691
16.7499,92589
16.7572,91569
16.7646,93030
16.772,93299
16.7794,92166
16.7868,90402
16.7941,90476
16.8015,91268
16.8089,90054
16.8163,92435
16.8236,91695
16.831,90043
16.8384,90538
16.8458,92969
16.8531,90107
16.8605,93568
16.8679,91995
16.8753,93359
16.8827,93445
16.89,95113
16.8974,95003
16.9048,94906
16.9122,93230
16.9195,93479
16.9269,93921
16.9343,93306
16.9416,94249
16.949,93897
16.9564,94708
16.9638,94473
16.9712,95611
16.9785,98447
16.9859,97788
16.9933,95453
17.0007,94590
17.0081,97252
17.0154,95526
17.0228,95075
17.0302,96616
17.0376,96321
17.0449,94592
17.0523,95051
17.0597,96205
17.067,95734
17.0744,97937
17.0818,97898
17.0892,98290
17.0966,97491
17.1039,96235
17.1113,95965
17.1187,94933
17.1261,96106
17.1335,95393
17.1408,96987
17.1482,97304
17.1556,95829
17.1629,97432
17.1703,95275
17.1777,95628
17.1851,94127
17.1925,94744
17.1998,93986
17.2072,94404
17.2146,93498
17.222,94334
17.2293,93323
17.2367,95154
17.2441,93698
17.2515,95593
17.2588,96142
17.2662,98526
17.2736,96157
17.281,97120
17.2884,97602
17.2957,98393
17.3031,99448
17.3105,101357
17.3179,101566
17.3252,99543
17.3326,98695
17.34,100199
17.3473,98863
17.3547,96986
17.3621,97023
17.3695,97307
17.3769,96485
17.3842,96776
17.3916,95784
17.399,95155
17.4064,94455
17.4138,93955
17.4211,93976
17.4285,93330
17.4359,94456
17.4433,94155
17.4506,93730
17.458,94122
17.4654,91668
17.4728,92154
17.4801,94427
17.4875,93530
