D:\Data GC-MS\2017\ST\BZ\BZ 3-5.D 09 Feb 17  09:28 am
Start of data points
1.29388,5053421
1.30063,4918541
1.30737,4862049
1.31412,4856111
1.32087,4858713
1.3276,4873831
1.33435,4887176
1.34108,4858980
1.34783,4805286
1.35457,4722685
1.36132,4606712
1.36807,4427732
1.3748,4214696
1.38155,4005235
1.38828,3800819
1.39503,3602493
1.40177,3436990
1.40852,3307654
1.41527,3222559
1.422,3160204
1.42875,3109921
1.43548,3080247
1.44223,3051662
1.44897,3036471
1.45572,3019738
1.46247,3017806
1.4692,3012479
1.47595,3000862
1.48268,3145409
1.48943,4457125
1.51028,15087777
1.51767,15681424
1.52505,15967411
1.53242,16024095
1.5398,16044948
1.54717,16157604
1.55455,16422681
1.56193,16464162
1.5693,16459045
1.57668,16464434
1.58405,16441694
1.59143,16340943
1.5988,16073364
1.60618,15795019
1.61357,15773560
1.62093,15828133
1.62832,15784413
1.63568,15524258
1.64307,15047722
1.65045,14764431
1.65782,15241416
1.6652,15947095
1.67257,16363696
1.67995,16397708
1.68732,16166133
1.6947,15607934
1.70208,14917234
1.70945,13963479
1.71683,12936816
1.7242,11834682
1.73158,10755102
1.73897,9650454
1.74633,8748163
1.75372,8027651
1.76108,7427674
1.76847,7195556
1.77583,7759311
1.78322,9682156
1.7906,13650623
1.79797,18732704
1.80535,22460090
1.81272,24273444
1.8201,25214090
1.82748,25461206
1.83485,25301692
1.84223,24951766
1.8496,24380322
1.85698,23890224
1.86435,23613964
1.87173,23349326
1.87912,22935392
1.88648,22353928
1.89387,21641814
1.90123,20835580
1.90862,19902380
1.916,18761900
1.92337,17528866
1.93075,16150975
1.93812,14720742
1.9455,13751840
1.95287,13405877
1.96025,13357710
1.96763,13288256
1.975,13101651
1.98238,12711222
1.98975,12295307
1.99713,11908009
2.00452,11611495
2.01188,11338594
2.01927,10961561
2.02663,10568564
2.03402,10159232
2.04138,9661160
2.04877,9097345
2.05615,8575591
2.06352,7978524
2.0709,7371188
2.07827,6699269
2.08565,6152524
2.09302,6006458
2.1004,6035583
2.10778,6058164
2.11515,5950981
2.12253,5749257
2.1299,5674822
2.13728,5930086
2.14467,6962385
2.15203,8350711
2.15942,9420598
2.16678,9907435
2.17417,9891727
2.18153,9548608
2.18892,8891048
2.1963,8106997
2.20367,7261869
2.21105,6396930
2.21842,5595624
2.2258,4825308
2.23318,4163980
2.24055,3546852
2.24793,3036936
2.2553,2620617
2.26268,2244016
2.27005,1945016
2.27743,1710241
2.28482,1516990
2.29218,1337056
2.29957,1173603
2.30693,1053220
2.31432,1049478
2.3217,1295713
2.32907,1773144
2.33645,2293134
2.34382,2587001
2.3512,2684970
2.35857,2661045
2.36595,2537293
2.37333,2348614
2.3807,2159193
2.38808,1999832
2.39545,2143167
2.40283,3104307
2.41022,4956957
2.41758,7465172
2.42497,10097522
2.43233,11979003
2.43972,13288628
2.44708,13856930
2.45447,13908321
2.46185,13264129
2.46922,12409414
2.4766,11323614
2.48397,10153400
2.49135,9743326
2.49873,10427694
2.5061,11384410
2.51348,11967479
2.52085,12074771
2.52823,11553337
2.5356,10865273
2.54298,9840680
2.55037,8627790
2.55773,7413635
2.56512,6340125
2.57248,5559597
2.57987,5090032
2.58725,4944396
2.59462,5280867
2.602,6471924
2.60937,8427194
2.61675,10219749
2.62412,11212141
2.6315,11609305
2.63888,11394973
2.64625,10659357
2.65363,9815684
2.661,8643299
2.66838,7488692
2.67575,6228182
2.68313,5192783
2.69052,4397631
2.69788,3648523
2.70527,3389746
2.71263,4077606
2.72002,5569347
2.7274,6576232
2.73477,7339768
2.74215,7364999
2.74952,7001261
2.7569,6677096
2.76427,6249472
2.77165,5964790
2.77903,5652520
2.7864,5291788
2.79378,4753725
2.80115,4182321
2.80853,3649354
2.81592,3148114
2.82328,2711150
2.83067,2409047
2.83803,2228513
2.84542,2077690
2.85278,1944988
2.86017,1773912
2.86755,1680451
2.87492,1664610
2.8823,1611916
2.88967,1533086
2.89705,1380509
2.90443,1208040
2.9118,1057163
2.91918,988597
2.92655,949813
2.93393,933898
2.9413,1015263
2.94868,1353766
2.95607,2141532
2.96343,3181051
2.97082,4058651
2.97818,4436348
2.98557,4275828
2.99295,3955965
3.00032,3404849
3.0077,2954915
3.01507,2665146
3.02245,2826400
3.02982,3097859
3.0372,3512770
3.04458,4173645
3.05195,4838893
3.05933,5123317
3.0667,5091920
3.07408,4983970
3.08147,4680508
3.08883,4262460
3.09622,3723110
3.10358,3081951
3.11097,2522338
3.11833,2087525
3.12572,1950120
3.1331,2136703
3.14047,2329876
3.14785,2351325
3.15522,2229307
3.1626,1993484
3.16998,1742217
3.17735,1490087
3.18473,1269104
3.1921,1135759
3.19948,1036308
3.20685,1001756
3.21423,1146479
3.22162,1889806
3.22898,3293927
3.23637,4557860
3.24373,5016677
3.25112,4770858
3.25848,4446523
3.26587,3893610
3.27325,3421683
3.28062,3485742
3.288,4046161
3.29537,4395312
3.30275,4458555
3.31013,4177873
3.3175,3780166
3.32488,3366877
3.33225,3363254
3.33963,3917510
3.347,4392063
3.35438,4472330
3.36177,4304991
3.36913,3894031
3.37652,3454340
3.38388,3244204
3.39127,3888151
3.39865,5432781
3.40602,6839355
3.4134,8481149
3.42077,10998304
3.42815,19267500
3.43552,26735358
3.4429,29569400
3.45028,30563498
3.45765,30590306
3.46503,30124208
3.4724,28748252
3.47978,26961728
3.48717,25619060
3.49453,24130720
3.50192,22199024
3.50928,19901616
3.51667,16493015
3.52403,13046321
3.53142,9868950
3.5388,7437860
3.54617,5568827
3.55355,4456711
3.56092,4142957
3.5683,3930918
3.57568,3713276
3.58305,3352095
3.59043,2932082
3.5978,2448720
3.60518,1918575
3.61255,1526815
3.61993,1240660
3.62732,1080919
3.63468,969599
3.64207,946863
3.64943,1005645
3.65682,1136425
3.6642,1549793
3.67157,2105854
3.67895,2325866
3.68632,2342382
3.6937,2488824
3.70107,2749544
3.70845,2908929
3.71583,2806908
3.7232,2595902
3.73058,2227610
3.73795,1937791
3.74533,1753776
3.75272,1670396
3.76008,1637117
3.76747,1603678
3.77483,1855089
3.78222,3622224
3.78958,6954424
3.79697,9253127
3.80435,8910533
3.81172,7722010
3.8191,6127473
3.82647,4731669
3.83385,3447768
3.84122,2541034
3.8486,1899700
3.85598,1556767
3.86335,1602999
3.87073,2079163
3.8781,2410233
3.88548,2228520
3.89287,1850234
3.90023,1560566
3.90762,1532047
3.91498,1618226
3.92237,1691881
3.92973,1628810
3.93712,1476544
3.9445,1309627
3.95187,1132539
3.95925,1030772
3.96662,1074365
3.974,1118402
3.98138,1085546
3.98875,942614
3.99613,841549
4.0035,800283
4.01088,819182
4.01825,801158
4.02563,750603
4.03302,672641
4.04038,748919
4.04777,1198001
4.05513,1800442
4.06252,2075684
4.0699,2140211
4.07727,1974301
4.08465,1686375
4.09202,1349455
4.0994,1158312
4.10677,1173544
4.11415,1415367
4.12153,1880400
4.1289,2416819
4.13628,2481042
4.14365,2256639
4.15103,1907730
4.15842,1620620
4.16578,1346148
4.17317,1161500
4.18053,1257968
4.18792,1510292
4.19528,1894047
4.20267,3095356
4.21005,4422211
4.21742,4913655
4.2248,4447931
4.23217,3591396
4.23955,2858016
4.24693,2340327
4.2543,1978307
4.26168,1611384
4.26905,1334816
4.27643,1260967
4.2838,1245351
4.29118,1262291
4.29857,1300341
4.30593,1393798
4.31332,1476905
4.32068,1431728
4.32807,1268135
4.33545,1099997
4.34282,1030028
4.3502,1049388
4.35757,1088966
4.36495,1066592
4.37232,1001942
4.3797,981375
4.38708,948418
4.39445,967044
4.40183,1005851
4.4092,1049986
4.41658,1134264
4.42395,1283929
4.43133,1369381
4.43872,1292157
4.44608,1198707
4.45347,1302531
4.46083,1560080
4.46822,1780400
4.4756,1842192
4.48297,1852282
4.49035,1834496
4.49772,1770019
4.5051,1697840
4.51247,1678769
4.51985,1668342
4.52723,2338121
4.5346,7658730
4.54198,18338508
4.54935,25033026
4.55673,27876000
4.56412,28015892
4.57148,26164682
4.57887,21949526
4.58623,16259199
4.59362,10049446
4.60098,5302114
4.60837,2795333
4.61575,1972543
4.62312,4204746
4.6305,14186609
4.63787,26787358
4.64525,33046294
4.65263,36216476
4.66,37554248
4.66738,37759908
4.67475,37739304
4.68213,32188008
4.6895,12165369
4.69688,5182203
4.70427,2795184
4.71163,1797926
4.71902,1468806
4.72638,1522625
4.73377,1643302
4.74115,1436238
4.74852,1160401
4.7559,1080035
4.76327,1153252
4.77065,1083621
4.77802,821512
4.7854,601868
4.79278,612366
4.80015,767198
4.80753,893124
4.8149,1071619
4.82228,1384870
4.82967,1554779
4.83703,1622328
4.84442,1727973
4.85178,2088296
4.85917,2549861
4.86653,2471928
4.87392,1961250
4.8813,1621867
4.88867,1427550
4.89605,1198341
4.90342,1091689
4.9108,2670791
4.91818,11084795
4.92555,23725230
4.93293,30560800
4.9403,33335064
4.94768,32342736
4.95505,22773302
4.96243,10214064
4.96982,7110160
4.97718,7226686
4.98457,5675150
4.99193,3241114
4.99932,1680386
5.0067,987384
5.01407,714002
5.02145,561226
5.02882,460201
5.0362,499984
5.04357,661953
5.05095,849948
5.05833,1054717
5.0657,1261595
5.07308,1274379
5.08045,1267175
5.08783,1392909
5.0952,1393177
5.10258,1211753
5.10997,1044111
5.11733,1095152
5.12472,1165235
5.13208,1072640
5.13947,881917
5.14685,680445
5.15422,541643
5.1616,531645
5.16897,640790
5.17635,926642
5.18372,1384229
5.1911,1525571
5.19848,1282685
5.20585,894988
5.21323,666584
5.2206,604078
5.22798,595697
5.23537,679701
5.24273,933622
5.25012,1240236
5.25748,1587041
5.26487,2007995
5.27223,2145067
5.27962,1939067
5.287,2504670
5.29437,5268698
5.30175,8101702
5.30912,7755707
5.3165,5686851
5.32388,3628784
5.33125,2357443
5.33863,1626665
5.346,1224756
5.35338,1125944
5.36075,1393253
5.36813,2031315
5.37552,2568661
5.38288,2381847
5.39027,1944362
5.39763,1615633
5.40502,1324611
5.4124,1046459
5.41977,833705
5.42715,802422
5.43452,1034843
5.4419,1461149
5.44927,1647965
5.45665,1522832
5.46403,1335159
5.4714,1199565
5.47878,983710
5.48615,816416
5.49353,784572
5.50092,870180
5.50828,978295
5.51567,1079039
5.52303,1207671
5.53042,1298360
5.53778,1306701
5.54517,1252650
5.55255,1170747
5.55992,1071659
5.5673,1030001
5.57467,974765
5.58205,914760
5.58943,864364
5.5968,847616
5.60418,917348
5.61155,1159427
5.61893,1760818
5.6263,3794634
5.63368,10813539
5.64107,18938810
5.64843,22636618
5.65582,21911746
5.66318,16576576
5.67057,9498703
5.67793,4079837
5.68532,2334085
5.6927,2486066
5.70007,3255338
5.70745,3990391
5.71482,6728571
5.7222,14226388
5.72958,23698092
5.73695,31069008
5.74433,35144368
5.7517,36841784
5.75908,37700768
5.76645,37938128
5.77383,36242928
5.78122,34106604
5.78858,18193552
5.79597,2634709
5.80333,3142359
5.81072,13609667
5.8181,26662518
5.82547,32382592
5.83285,35319836
5.84022,34143852
5.8476,11504604
5.85497,1586567
5.86235,1524155
5.86973,1740717
5.8771,1751479
5.88448,1507988
5.89185,1286913
5.89923,1288727
5.90662,1205214
5.91398,950114
5.92137,670391
5.92873,609923
5.93612,1400367
5.94348,7300596
5.95087,20401394
5.95825,29881410
5.96562,33186358
5.973,29254914
5.98037,11606432
5.98775,3189205
5.99513,1872854
6.0025,1529026
6.00988,1487620
6.01725,1521586
6.02463,1473817
6.032,1317801
6.03938,1158714
6.04677,1148855
6.05413,1294407
6.06152,1327111
6.06888,1334215
6.07627,1541372
6.08365,1951602
6.09102,4045329
6.0984,13018399
6.10577,25787392
6.11315,32670902
6.12052,35816192
6.1279,38065860
6.13528,39676168
6.14265,40048828
6.15003,39436168
6.1574,39595372
6.16478,7736751
6.17217,1589703
6.17953,1392148
6.18692,1937559
6.19428,2539483
6.20167,2246414
6.20903,1386064
6.21642,792251
6.2238,665185
6.23117,908822
6.23855,1199204
6.24592,1249606
6.2533,1221840
6.26067,2431853
6.26805,4973174
6.27543,4601802
6.2828,2509373
6.29018,2253037
6.29755,3597482
6.30493,5185331
6.31232,4450340
6.31968,2200931
6.32707,1337297
6.33443,1314415
6.34182,1402072
6.34918,1541600
6.35657,2073271
6.36395,2286418
6.37132,1655023
6.3787,1362028
6.38607,1845691
6.39345,2714037
6.40083,2313228
6.4082,2766996
6.41558,3791938
6.42295,6590861
6.43033,13392152
6.4377,19092416
6.44508,25921306
6.45247,32220528
6.45983,35783544
6.46722,33359398
6.47458,11017022
6.48197,1706171
6.48935,1651559
6.49672,1755319
6.5041,1971047
6.51147,2520662
6.51885,3412175
6.52622,3817278
6.5336,3258768
6.54098,2642964
6.54835,2787312
6.55573,2795360
6.5631,2780737
6.57048,2913882
6.57787,2386568
6.58523,2128142
6.59262,4922611
6.59998,15366066
6.60737,26020202
6.61473,26448168
6.62212,13205430
6.6295,2363520
6.63687,916702
6.64425,942435
6.65162,1016841
6.659,978507
6.66638,976416
6.67375,1199242
6.68113,1569527
6.6885,1685889
6.69588,1912865
6.70325,2713382
6.71063,3582843
6.71802,5577061
6.72538,10859846
6.73277,16846706
6.74013,19998010
6.74752,24081424
6.7549,28306210
6.76227,25968684
6.76965,13303364
6.77702,7224306
6.7844,7906917
6.79177,15653603
6.79915,22038466
6.80653,24818254
6.8139,20347992
6.82128,19713224
6.82865,27930180
6.83603,32704682
6.8434,25250760
6.85078,8091675
6.85817,3206151
6.86553,2766126
6.87292,4915922
6.88028,5300172
6.88767,2778579
6.89505,1401582
6.90242,1719013
6.9098,4224783
6.91717,8617314
6.92455,12951392
6.93192,16310198
6.9393,14345423
6.94668,8080071
6.95405,4804250
6.96143,2357526
6.9688,1423697
6.97618,1722186
6.98357,2146769
6.99093,2046204
6.99832,1983273
7.00568,2194258
7.01307,2137522
7.02043,2903304
7.02782,8501623
7.0352,19117810
7.04257,24829954
7.04995,23204538
7.05732,20746330
7.0647,25321942
7.07208,21697456
7.07945,6099270
7.08683,1955710
7.0942,4338534
7.10158,8047789
7.10895,8955545
7.11633,8458204
7.12372,16828396
7.13108,28299504
7.13847,32830658
7.14583,24007310
7.15322,5691565
7.1606,8080861
7.16797,14286814
7.17535,12878419
7.18272,4882190
7.1901,1821499
7.19747,3079321
7.20485,5693375
7.21223,6284024
7.2196,8083042
7.22698,8088185
7.23435,4258584
7.24173,1798243
7.24912,1558751
7.25648,2407829
7.26387,3744476
7.27123,4041625
7.27862,3517781
7.28598,4098690
7.29337,4133898
7.30075,2617265
7.30812,2070824
7.3155,3380442
7.32287,4010488
7.33025,2539608
7.33763,1671597
7.345,2256877
7.35238,6532591
7.35975,13402155
7.36713,13713456
7.3745,6219263
7.38188,2646583
7.38927,2484569
7.39663,2739122
7.40402,2809791
7.41138,2611009
7.41877,1777106
7.42613,1508780
7.43352,2322192
7.4409,2964590
7.44827,6295205
7.45565,16548837
7.46302,25983480
7.4704,26486578
7.47778,13167115
7.48515,2842124
7.49253,1996524
7.4999,7846124
7.50728,21638980
7.51465,30788404
7.52203,30431618
7.52942,12127709
7.53678,1818067
7.54417,1070832
7.55153,947279
7.55892,1038752
7.5663,1357249
7.57367,1939421
7.58105,2541545
7.58842,2784495
7.5958,2565562
7.60317,2037960
7.61055,2195219
7.61793,2510134
7.6253,1922902
7.63268,1529085
7.64005,1587392
7.64743,1973341
7.65482,4052032
7.66218,8137215
7.66957,8989874
7.67693,4755726
7.68432,2183414
7.69168,1845095
7.69907,2473247
7.70645,5379866
7.71382,13394922
7.7212,24150030
7.72857,24400684
7.73595,13851562
7.74333,11711511
7.7507,10507458
7.75808,5411398
7.76545,5179343
7.77283,5866554
7.7802,3914864
7.78758,3275768
7.79497,3506285
7.80233,4019504
7.80972,3595431
7.81708,6431729
7.82447,12407493
7.83185,15743455
7.83922,22316332
7.8466,27223864
7.85397,25707270
7.86135,19416568
7.86872,11323778
7.8761,12025903
7.88348,11725789
7.89085,6543673
7.89823,3952381
7.9056,5838861
7.91298,7947693
7.92037,5630258
7.92773,4906409
7.93512,6739730
7.94248,5582766
7.94987,5609376
7.95723,7857262
7.96462,8434195
7.972,6527834
7.97937,4828005
7.98675,4466059
7.99412,5090336
8.0015,6127940
8.00887,4398137
8.01625,1803981
8.02363,949394
8.031,846904
8.03838,1271411
8.04575,2754767
8.05313,5336254
8.06052,9415429
8.06788,10583789
8.07527,5735697
8.08263,3124052
8.09002,2410819
8.09738,1853933
8.10477,1266392
8.11215,1082337
8.11952,1182644
8.1269,1026970
8.13427,1022342
8.14165,1441752
8.14903,1998093
8.1564,2840722
8.16378,5115606
8.17115,5882419
8.17853,3877875
8.1859,3531399
8.19328,6842647
8.20067,12131268
8.20803,22016790
8.21542,29335362
8.22278,30795010
8.23017,28045506
8.23755,16132750
8.24492,8926367
8.2523,4554633
8.25967,2648380
8.26705,1958124
8.27442,2637227
8.2818,5202641
8.28918,9444532
8.29655,12749394
8.30393,9658681
8.3113,6149139
8.31868,10725493
8.32607,12802327
8.33343,6180810
8.34082,1911036
8.34818,1512165
8.35557,1683151
8.36293,1632715
8.37032,1679282
8.3777,2131139
8.38507,2358644
8.39245,2152651
8.39982,2222075
8.4072,3718734
8.41458,6697038
8.42195,5822165
8.42933,2488148
8.4367,1299763
8.44408,1201530
8.45145,1229089
8.45883,1780538
8.46622,2097909
8.47358,1677096
8.48097,1555086
8.48833,2244774
8.49572,2503464
8.5031,2567102
8.51047,3271552
8.51785,2847758
8.52522,1882390
8.5326,1794050
8.53997,2161625
8.54735,2281932
8.55473,3121624
8.5621,3904332
8.56948,2770934
8.57685,2030821
8.58423,1957583
8.5916,1625397
8.59898,1540127
8.60637,1527959
8.61373,1121082
8.62112,1059983
8.62848,1502724
8.63587,1607466
8.64325,1391213
8.65062,1530985
8.658,2928767
8.66537,5337903
8.67275,6072300
8.68012,4802115
8.6875,4853401
8.69488,5299978
8.70225,3981736
8.70963,2477796
8.717,1656250
8.72438,1818775
8.73177,2518864
8.73913,2534314
8.74652,2573903
8.75388,2161689
8.76127,1788292
8.76863,2302150
8.77602,2379218
8.7834,2123245
8.79077,2278402
8.79815,2434865
8.80552,2726796
8.8129,2437900
8.82028,2667136
8.82765,5177392
8.83503,7535585
8.8424,5034665
8.84978,2156552
8.85715,2455090
8.86453,2730469
8.87192,2612873
8.87928,2953201
8.88667,2417672
8.89403,1209703
8.90142,731266
8.9088,825525
8.91617,1326733
8.92355,2103528
8.93092,2116291
8.9383,1905616
8.94567,2097950
8.95305,1840806
8.96043,2071523
8.9678,3533840
8.97518,3883663
8.98255,2462204
8.98993,1695924
8.99732,2148406
9.00468,2396569
9.01207,1887355
9.01943,1439694
9.02682,1574298
9.03418,1512656
9.04157,1200796
9.04895,1550678
9.05632,2205278
9.0637,1996318
9.07107,1263296
9.07845,916815
9.08583,764492
9.0932,828003
9.10058,1320070
9.10795,1815664
9.11533,2514392
9.1227,4153941
9.13008,5038195
9.13747,3926203
9.14483,2660197
9.15222,2600664
9.15958,2554310
9.16697,1470332
9.17433,971285
9.18172,1220634
9.1891,1944100
9.19647,2877418
9.20385,2212356
9.21122,1083448
9.2186,878531
9.22598,1010811
9.23335,1056925
9.24073,1102630
9.2481,1556819
9.25548,1711428
9.26285,1293431
9.27023,1609829
9.27762,4912306
9.28498,13399189
9.29237,20820574
9.29973,16836780
9.30712,4846812
9.3145,1043579
9.32187,854158
9.32925,959780
9.33662,956770
9.344,1082738
9.35137,1034277
9.35875,761624
9.36613,705628
9.3735,714451
9.38088,606999
9.38825,515365
9.39563,497530
9.40302,516637
9.41038,575339
9.41777,715037
9.42513,736046
9.43252,554765
9.43988,933428
9.44727,3620581
9.45465,8403467
9.46202,9168000
9.4694,4251732
9.47677,1411788
9.48415,942201
9.49153,873950
9.4989,1079284
9.50628,1234676
9.51365,936547
9.52103,630469
9.5284,667652
9.53578,941737
9.54317,1145279
9.55053,912827
9.55792,673362
9.56528,593160
9.57267,660098
9.58005,790874
9.58742,816116
9.5948,732452
9.60217,751333
9.60955,906314
9.61692,862797
9.6243,695259
9.63168,618730
9.63905,602427
9.64643,730604
9.6538,907651
9.66118,842269
9.66857,567589
9.67593,506070
9.68332,657339
9.69068,632728
9.69807,506213
9.70543,565749
9.71282,732882
9.7202,765469
9.72757,647611
9.73495,673265
9.74232,697557
9.7497,637354
9.75708,515967
9.76445,496299
9.77183,624088
9.7792,785864
9.78658,983238
9.79395,1028208
9.80133,800732
9.80872,640409
9.81608,604510
9.82347,599693
9.83083,539169
9.83822,568400
9.84558,602125
9.85297,620119
9.86035,700503
9.86772,720756
9.8751,686748
9.88247,597758
9.88985,618495
9.89723,788433
9.9046,798489
9.91198,575747
9.91935,421286
9.92673,396549
9.9341,411272
9.94148,424562
9.94887,411240
9.95623,397387
9.96362,397712
9.97098,429169
9.97837,443532
9.98575,419166
9.99312,383957
10.0005,407981
10.0079,446187
10.0153,472162
10.0226,492456
10.03,497379
10.0374,472592
10.0448,525176
10.0521,559673
10.0595,489094
10.0669,415081
10.0743,408211
10.0816,429371
10.089,638614
10.0964,1064390
10.1038,1106881
10.1111,863418
10.1185,629968
10.1259,456689
10.1333,394543
10.1407,440456
10.148,743005
10.1554,1138725
10.1628,1097094
10.1702,777816
10.1775,639176
10.1849,814232
10.1923,1151423
10.1997,963494
10.207,557115
10.2144,424222
10.2218,485327
10.2292,558842
10.2365,486790
10.2439,360671
10.2513,344008
10.2587,405224
10.2661,497508
10.2734,839097
10.2808,1712168
10.2882,2338853
10.2956,1900912
10.3029,980759
10.3103,440352
10.3177,344409
10.3251,411580
10.3324,679678
10.3398,888483
10.3472,653584
10.3546,396455
10.3619,348628
10.3693,360674
10.3767,362078
10.3841,334179
10.3915,311393
10.3988,318201
10.4062,424754
10.4136,959577
10.421,2048838
10.4283,2377670
10.4357,1456805
10.4431,872147
10.4505,1193672
10.4578,1483620
10.4652,1014557
10.4726,548369
10.48,420000
10.4873,436981
10.4947,384295
10.5021,362245
10.5095,411874
10.5168,404988
10.5242,355302
10.5316,322484
10.539,296936
10.5464,313954
10.5537,372095
10.5611,432605
10.5685,455292
10.5759,497524
10.5832,552074
10.5906,724592
10.598,1067182
10.6054,1058917
10.6127,678383
10.6201,421692
10.6275,477152
10.6349,637959
10.6422,577607
10.6496,381264
10.657,294836
10.6644,301166
10.6718,311254
10.6791,319403
10.6865,328063
10.6939,319327
10.7013,300623
10.7086,313160
10.716,313676
10.7234,334753
10.7308,443368
10.7381,680043
10.7455,779779
10.7529,498892
10.7603,284078
10.7676,253596
10.775,290193
10.7824,301216
10.7898,264518
10.7972,255746
10.8045,266029
10.8119,286353
10.8193,272770
10.8267,262433
10.834,273309
10.8414,313028
10.8488,334122
10.8562,276296
10.8635,247765
10.8709,280563
10.8783,321575
10.8857,342742
10.893,356118
10.9004,368335
10.9078,405404
10.9152,403685
10.9226,386045
10.9299,397862
10.9373,463537
10.9447,584091
10.9521,689370
10.9594,641939
10.9668,484986
10.9742,349739
10.9816,328621
10.9889,345338
10.9963,405584
11.0037,471237
11.0111,455676
11.0184,381449
11.0258,362054
11.0332,403263
11.0406,448837
11.0479,396300
11.0553,331620
11.0627,301526
11.0701,320424
11.0775,322364
11.0848,288491
11.0922,286930
11.0996,337160
11.107,361490
11.1143,364779
11.1217,385013
11.1291,528566
11.1365,666630
11.1438,534203
11.1512,329474
11.1586,276940
11.166,291147
11.1733,291743
11.1807,300587
11.1881,302600
11.1955,267348
11.2029,215926
11.2102,195786
11.2176,203000
11.225,248451
11.2324,314348
11.2397,314259
11.2471,255047
11.2545,249504
11.2619,302714
11.2692,329291
11.2766,291598
11.284,275302
11.2914,333819
11.2987,416511
11.3061,443471
11.3135,536564
11.3209,607467
11.3283,424201
11.3356,266970
11.343,271245
11.3504,390287
11.3578,617048
11.3651,653368
11.3725,405686
11.3799,223911
11.3873,189986
11.3946,224442
11.402,277506
11.4094,273800
11.4168,223032
11.4241,211879
11.4315,216670
11.4389,221849
11.4463,207511
11.4536,200211
11.461,201223
11.4684,193917
11.4758,191483
11.4832,224370
11.4905,355021
11.4979,502631
11.5053,458862
11.5127,382076
11.52,493713
11.5274,447637
11.5348,259549
11.5422,163792
11.5495,147664
11.5569,145307
11.5643,148303
11.5717,151972
11.579,155237
11.5864,157043
11.5938,158869
11.6012,162010
11.6086,170587
11.6159,212351
11.6233,306507
11.6307,376927
11.6381,392870
11.6454,334750
11.6528,306676
11.6602,333899
11.6676,278974
11.6749,193680
11.6823,176742
11.6897,210155
11.6971,227694
11.7044,193707
11.7118,168352
11.7192,173632
11.7266,181875
11.734,177252
11.7413,197201
11.7487,255304
11.7561,270326
11.7635,227116
11.7708,221361
11.7782,295652
11.7856,342231
11.793,287936
11.8003,301806
11.8077,430826
11.8151,410293
11.8225,287554
11.8298,220111
11.8372,206105
11.8446,232824
11.852,245133
11.8593,211368
11.8667,176589
11.8741,176786
11.8815,205277
11.8889,299456
11.8962,443483
11.9036,432962
11.911,277492
11.9184,220049
11.9257,243975
11.9331,248445
11.9405,209155
11.9479,216201
11.9552,260509
11.9626,289030
11.97,293121
11.9774,322253
11.9847,350229
11.9921,309109
11.9995,233160
12.0069,211778
12.0143,237405
12.0216,252428
12.029,238812
12.0364,245354
12.0438,276742
12.0511,236049
12.0585,179213
12.0659,170596
12.0733,195595
12.0806,226393
12.088,223958
12.0954,207548
12.1028,216595
12.1101,283500
12.1175,365898
12.1249,336395
12.1323,283845
12.1397,290495
12.147,272872
12.1544,226089
12.1618,193819
12.1692,174256
12.1765,167490
12.1839,170413
12.1913,170918
12.1987,169402
12.206,161024
12.2134,155241
12.2208,160255
12.2282,174131
12.2355,175402
12.2429,181759
12.2503,184705
12.2577,192153
12.265,197506
12.2724,182664
12.2798,158653
12.2872,155530
12.2946,181761
12.3019,196971
12.3093,187615
12.3167,167148
12.3241,151542
12.3314,150214
12.3388,148421
12.3462,161648
12.3536,197391
12.3609,210688
12.3683,170358
12.3757,147327
12.3831,151149
12.3904,160668
12.3978,161211
12.4052,150927
12.4126,137408
12.42,129183
12.4273,136189
12.4347,152570
12.4421,157667
12.4495,145029
12.4568,142265
12.4642,175033
12.4716,215267
12.479,211405
12.4863,207287
12.4937,204172
12.5011,182478
12.5085,194711
12.5158,210618
12.5232,184089
12.5306,153988
12.538,141567
12.5454,140163
12.5527,153541
12.5601,171672
12.5675,212757
12.5749,252542
12.5822,234203
12.5896,226220
12.597,253653
12.6044,239942
12.6117,191649
12.6191,172623
12.6265,191195
12.6339,224045
12.6412,222761
12.6486,193199
12.656,188166
12.6634,224145
12.6708,274639
12.6781,270924
12.6855,249497
12.6929,228044
12.7003,202549
12.7076,199527
12.715,217841
12.7224,205225
12.7298,192324
12.7371,184462
12.7445,192436
12.7519,221073
12.7593,253714
12.7666,249992
12.774,203443
12.7814,168943
12.7888,173490
12.7961,194254
12.8035,182211
12.8109,158300
12.8183,161714
12.8257,165796
12.833,176014
12.8404,192810
12.8478,201590
12.8552,200628
12.8625,190131
12.8699,172127
12.8773,160618
12.8847,162189
12.892,167228
12.8994,171776
12.9068,192113
12.9142,252895
12.9215,274971
12.9289,212775
12.9363,165034
12.9437,142145
12.9511,134343
12.9584,146568
12.9658,158604
12.9732,180591
12.9806,198762
12.9879,204326
12.9953,206892
13.0027,189226
13.0101,176231
13.0174,188593
13.0248,167790
13.0322,142440
13.0396,140870
13.0469,145330
13.0543,137960
13.0617,129524
13.0691,125980
13.0765,123323
13.0838,118087
13.0912,121216
13.0986,127474
13.106,133079
13.1133,139059
13.1207,145031
13.1281,141528
13.1355,137074
13.1428,152073
13.1502,163770
13.1576,145776
13.165,132563
13.1723,136218
13.1797,143717
13.1871,139789
13.1945,134059
13.2018,145208
13.2092,152375
13.2166,138563
13.224,133715
13.2314,150556
13.2387,174892
13.2461,178876
13.2535,156324
13.2609,139117
13.2682,130261
13.2756,119536
13.283,123197
13.2904,133411
13.2977,136864
13.3051,151870
13.3125,170005
13.3199,173473
13.3272,186475
13.3346,232958
13.342,253920
13.3494,202869
13.3568,143948
13.3641,124873
13.3715,121007
13.3789,116701
13.3863,112062
13.3936,116628
13.401,125929
13.4084,132150
13.4158,130673
13.4231,134000
13.4305,145362
13.4379,157242
13.4453,158091
13.4526,146061
13.46,132663
13.4674,133338
13.4748,127587
13.4822,119836
13.4895,119475
13.4969,118820
13.5043,117758
13.5117,120855
13.519,121520
13.5264,125472
13.5338,144987
13.5412,164439
13.5485,182176
13.5559,191874
13.5633,171275
13.5707,150438
13.578,153373
13.5854,157068
13.5928,159933
13.6002,152943
13.6075,147316
13.6149,153271
13.6223,151742
13.6297,154008
13.6371,147567
13.6444,133944
13.6518,128517
13.6592,122017
13.6666,110639
13.6739,106588
13.6813,114652
13.6887,127287
13.6961,124182
13.7034,111648
13.7108,111053
13.7182,115367
13.7256,118460
13.7329,122338
13.7403,123055
13.7477,124293
13.7551,127247
13.7625,134321
13.7698,139449
13.7772,127764
13.7846,112863
13.792,110250
13.7993,112587
13.8067,112401
13.8141,119964
13.8215,120577
13.8288,114890
13.8362,107228
13.8436,107096
13.851,115705
13.8583,120458
13.8657,116421
13.8731,116273
13.8805,121624
13.8879,126809
13.8952,117222
13.9026,109818
13.91,108507
13.9174,106065
13.9247,116481
13.9321,142482
13.9395,156692
13.9469,148749
13.9542,130751
13.9616,121697
13.969,124745
13.9764,120507
13.9837,110182
13.9911,107151
13.9985,107284
14.0059,104059
14.0132,98378
14.0206,95197
14.028,95579
14.0354,95121
14.0428,97328
14.0501,96548
14.0575,96160
14.0649,100726
14.0723,103058
14.0796,104146
14.087,103273
14.0944,102984
14.1018,101321
14.1091,101403
14.1165,107023
14.1239,144351
14.1313,196969
14.1386,197663
14.146,138430
14.1534,107300
14.1608,116700
14.1682,169207
14.1755,223871
14.1829,194167
14.1903,135604
14.1977,115086
14.205,113947
14.2124,113464
14.2198,105591
14.2272,108052
14.2345,118318
14.2419,118956
14.2493,109087
14.2567,103808
14.264,100477
14.2714,98076
14.2788,94452
14.2862,96648
14.2936,101030
14.3009,120612
14.3083,143796
14.3157,141817
14.3231,129901
14.3304,126248
14.3378,145327
14.3452,158495
14.3526,132973
14.3599,106279
14.3673,98743
14.3747,100257
14.3821,103997
14.3894,103811
14.3968,97035
14.4042,97150
14.4116,96620
14.419,97968
14.4263,102450
14.4337,99653
14.4411,97686
14.4485,101284
14.4558,112006
14.4632,116387
14.4706,108574
14.478,101773
14.4853,103471
14.4927,106313
14.5001,106772
14.5075,102855
14.5148,106238
14.5222,106144
14.5296,105295
14.537,100612
14.5443,96026
14.5517,96371
14.5591,111057
14.5665,129624
14.5739,126615
14.5812,108214
14.5886,106577
14.596,118740
14.6034,127405
14.6107,116140
14.6181,107999
14.6255,103862
14.6329,102622
14.6402,101314
14.6476,97428
14.655,96513
14.6624,98588
14.6697,104217
14.6771,105419
14.6845,102456
14.6919,100449
14.6993,97338
14.7066,100643
14.714,106708
14.7214,103202
14.7288,99302
14.7361,96192
14.7435,94762
14.7509,97104
14.7583,97957
14.7656,98483
14.773,99556
14.7804,97462
14.7878,97616
14.7951,97959
14.8025,98144
14.8099,110970
14.8173,129357
14.8247,127908
14.832,116403
14.8394,111276
14.8468,105904
14.8542,106637
14.8615,112289
14.8689,135865
14.8763,147508
14.8837,124392
14.891,113312
14.8984,122201
14.9058,125734
14.9132,110746
14.9205,102214
14.9279,101962
14.9353,101160
14.9427,100876
14.95,102168
14.9574,100459
14.9648,100768
14.9722,113316
14.9796,137636
14.9869,149565
14.9943,126041
15.0017,110309
15.0091,109607
15.0164,124352
15.0238,126647
15.0312,111264
15.0386,99807
15.0459,96683
15.0533,104161
15.0607,106022
15.0681,99434
15.0754,96944
15.0828,103390
15.0902,117618
15.0976,114775
15.105,100919
15.1123,102720
15.1197,116755
15.1271,124162
15.1345,100818
15.1418,92562
15.1492,93679
15.1566,100796
15.164,102402
15.1713,97280
15.1787,91832
15.1861,93133
15.1935,97624
15.2008,100658
15.2082,102311
15.2156,107316
15.223,105152
15.2304,96895
15.2377,92392
15.2451,93195
15.2525,92493
15.2599,94320
15.2672,95598
15.2746,97931
15.282,99859
15.2894,109925
15.2967,112813
15.3041,105369
15.3115,101243
15.3189,96237
15.3262,92175
15.3336,91068
15.341,91817
15.3484,90453
15.3557,91566
15.3631,94016
15.3705,93040
15.3779,94613
15.3853,94260
15.3926,90897
15.4,90482
15.4074,89615
15.4148,90367
15.4221,92100
15.4295,93878
15.4369,95409
15.4443,100236
15.4516,109289
15.459,111215
15.4664,103117
15.4738,98645
15.4811,94856
15.4885,93596
15.4959,92083
15.5033,90874
15.5107,90335
15.518,90370
15.5254,89817
15.5328,89788
15.5402,91561
15.5475,95126
15.5549,98409
15.5623,105009
15.5697,100684
15.577,93442
15.5844,90507
15.5918,89917
15.5992,93316
15.6065,101852
15.6139,113992
15.6213,113805
15.6287,101769
15.6361,92047
15.6434,92086
15.6508,95553
15.6582,100249
15.6656,97366
15.6729,93725
15.6803,94428
15.6877,93518
15.6951,95032
15.7024,98715
15.7098,97945
15.7172,93920
15.7246,94185
15.7319,95635
15.7393,94469
15.7467,93856
15.7541,95726
15.7614,93682
15.7688,91483
15.7762,98491
15.7836,99865
15.791,99204
15.7983,98002
15.8057,99730
15.8131,98247
15.8205,97360
15.8278,98245
15.8352,100261
15.8426,99900
15.85,102893
15.8573,102400
15.8647,105538
15.8721,107488
15.8795,108570
15.8868,106278
15.8942,106207
15.9016,108287
15.909,108036
15.9164,105825
15.9237,101512
15.9311,101398
15.9385,99108
15.9459,100522
15.9532,101803
15.9606,101971
15.968,103968
15.9754,110191
15.9827,112959
15.9901,114686
15.9975,113330
16.0049,112210
16.0122,113355
16.0196,116001
16.027,119387
16.0344,128587
16.0418,127341
16.0491,128891
16.0565,133113
16.0639,140735
16.0712,137315
16.0786,135086
16.086,131285
16.0934,131398
16.1008,129954
16.1081,131273
16.1155,132537
16.1229,131289
16.1303,126809
16.1376,124025
16.145,122745
16.1524,123079
16.1598,116515
16.1671,109721
16.1745,109173
16.1819,109063
16.1893,109273
16.1967,107278
16.204,105704
16.2114,106056
16.2188,109780
16.2262,108038
16.2335,102710
16.2409,103711
16.2483,103287
16.2557,102304
16.263,101295
16.2704,99457
16.2778,102186
16.2852,100419
16.2925,103135
16.2999,104240
16.3073,103530
16.3147,102854
16.3221,100543
16.3294,100735
16.3368,100795
16.3442,99574
16.3516,100681
16.3589,100713
16.3663,106117
16.3737,109032
16.381,114796
16.3884,113285
16.3958,113557
16.4032,110659
16.4106,111469
16.4179,114189
16.4253,113547
16.4327,115646
16.4401,113401
16.4475,112876
16.4548,109709
16.4622,106478
16.4696,104199
16.4769,103606
16.4843,103081
16.4917,103107
16.4991,107046
16.5065,110646
16.5138,110548
16.5212,113738
16.5286,117471
16.536,119812
16.5433,119926
16.5507,114830
16.5581,109418
16.5655,106553
16.5728,107591
16.5802,106897
16.5876,104039
16.595,106953
16.6024,107266
16.6097,110506
16.6171,105472
16.6245,103646
16.6319,99577
16.6392,102661
16.6466,100089
16.654,102325
16.6614,100212
16.6687,101209
16.6761,101828
16.6835,101814
16.6909,102124
16.6982,101334
16.7056,100709
16.713,101814
16.7204,100634
16.7278,102462
16.7351,103509
16.7425,99858
16.7499,102246
16.7572,102733
16.7646,100687
16.772,101372
16.7794,100843
16.7868,102170
16.7941,101372
16.8015,103146
16.8089,102814
16.8163,102308
16.8236,103625
16.831,102104
16.8384,101834
16.8458,101784
16.8531,101295
16.8605,101919
16.8679,102629
16.8753,101721
16.8827,102681
16.89,105265
16.8974,106147
16.9048,105593
16.9122,103977
16.9195,103828
16.9269,103415
16.9343,102029
16.9417,102704
16.949,102350
16.9564,102804
16.9638,104404
16.9712,103488
16.9785,106669
16.9859,107657
16.9933,105753
17.0007,104913
17.0081,104099
17.0154,105837
17.0228,106697
17.0302,106524
17.0376,107435
17.0449,107326
17.0523,108736
17.0597,106011
17.0671,107799
17.0744,107801
17.0818,108348
17.0892,108667
17.0966,110145
17.1039,106724
17.1113,106506
17.1187,106470
17.1261,106107
17.1335,108191
17.1408,106490
17.1482,106931
17.1556,106774
17.1629,106152
17.1703,105175
17.1777,106429
17.1851,106032
17.1925,106101
17.1998,104283
17.2072,104930
17.2146,104011
17.222,103584
17.2293,102984
17.2367,103533
17.2441,105158
17.2515,108428
17.2588,109812
17.2662,110080
17.2736,108682
17.281,109411
17.2884,108124
17.2957,107560
17.3031,111094
17.3105,113274
17.3179,115971
17.3252,116353
17.3326,115891
17.34,113932
17.3474,114519
17.3547,115209
17.3621,112793
17.3695,112038
17.3769,109570
17.3843,107716
17.3916,108632
17.399,106405
17.4064,104345
17.4138,104751
17.4211,103760
17.4285,104447
17.4359,104334
17.4433,103655
17.4506,103365
17.458,103688
17.4654,102500
17.4728,103066
17.4801,102325
17.4875,103369
