D:\Data GC-MS\2017\ST\BZ\B16 - BZ EVAP 80%.D 02 Feb 17  12:11 pm
Start of data points
1.29375,11763
1.30048,11809
1.30723,12147
1.31398,11869
1.32072,12246
1.32747,12191
1.3342,12350
1.34095,12443
1.34768,12417
1.35443,12072
1.36117,12427
1.36792,12546
1.37467,12315
1.3814,12190
1.38815,12532
1.39488,12187
1.40163,12360
1.40837,12328
1.41512,12096
1.42187,12181
1.4286,12286
1.43535,11923
1.44208,12100
1.44883,12193
1.45557,12104
1.46232,11475
1.46907,11627
1.4758,11443
1.48255,11520
1.48928,11654
1.51015,39644
1.51753,39893
1.5249,39765
1.53228,38886
1.53965,38868
1.54703,38846
1.5544,37567
1.56178,38497
1.56917,38949
1.57653,39375
1.58392,38053
1.59128,38827
1.59867,38931
1.60605,38769
1.61342,39196
1.6208,38556
1.62817,38289
1.63555,38357
1.64292,39853
1.6503,39138
1.65768,38708
1.66505,38588
1.67243,37906
1.6798,38170
1.68718,37974
1.69457,39231
1.70193,38936
1.70932,38322
1.71668,39208
1.72407,39239
1.73143,39064
1.73882,39966
1.7462,38684
1.75357,38695
1.76095,37014
1.76832,38320
1.7757,38459
1.78308,38093
1.79045,39366
1.79783,39611
1.8052,39365
1.81258,39313
1.81995,39040
1.82733,38980
1.83472,40110
1.84208,39521
1.84947,38889
1.85683,37925
1.86422,39923
1.87158,39305
1.87897,39567
1.88635,38496
1.89372,39983
1.9011,39262
1.90847,40071
1.91585,39431
1.92323,40185
1.9306,39865
1.93798,39914
1.94535,39416
1.95273,39310
1.9601,39862
1.96748,39117
1.97487,39717
1.98223,39325
1.98962,40577
1.99698,39915
2.00437,40219
2.01175,40467
2.01912,39518
2.0265,39987
2.03387,38832
2.04125,40551
2.04862,40722
2.056,40539
2.06338,40407
2.07075,39844
2.07813,40437
2.0855,40710
2.09288,40665
2.10027,41447
2.10763,41114
2.11502,40846
2.12238,41277
2.12977,42111
2.13713,41643
2.14452,41663
2.1519,41130
2.15927,41848
2.16665,41623
2.17402,41152
2.1814,41099
2.18878,41382
2.19615,41597
2.20353,41629
2.2109,41945
2.21828,41709
2.22565,41306
2.23303,40246
2.24042,40829
2.24778,41704
2.25517,41349
2.26253,41577
2.26992,41910
2.2773,41560
2.28467,41323
2.29205,42215
2.29942,41380
2.3068,41437
2.31417,41634
2.32155,41715
2.32893,41569
2.3363,41225
2.34368,41347
2.35105,42675
2.35843,42124
2.36582,42820
2.37318,42553
2.38057,41517
2.38793,42380
2.39532,42249
2.40268,42946
2.41007,42725
2.41745,42378
2.42482,43216
2.4322,42603
2.43957,43543
2.44695,42443
2.45432,43450
2.4617,43617
2.46908,43779
2.47645,42300
2.48383,43246
2.4912,43575
2.49858,43297
2.50597,44182
2.51333,42616
2.52072,43898
2.52808,43345
2.53547,44284
2.54283,44267
2.55022,44083
2.5576,43643
2.56497,44727
2.57235,43538
2.57972,43192
2.5871,43661
2.59448,43508
2.60185,44105
2.60923,44608
2.6166,44078
2.62398,43421
2.63135,43505
2.63873,42784
2.64612,43423
2.65348,44205
2.66087,43017
2.66823,44733
2.67562,44472
2.683,43842
2.69037,44465
2.69775,44650
2.70512,44277
2.7125,45158
2.71987,44053
2.72725,44176
2.73463,44303
2.742,44198
2.74938,44536
2.75675,45082
2.76413,44764
2.77152,45846
2.77888,44798
2.78627,44872
2.79363,44651
2.80102,45749
2.80838,44564
2.81577,44672
2.82315,44729
2.83052,45014
2.8379,44795
2.84527,45185
2.85265,44369
2.86003,43817
2.8674,45337
2.87478,46307
2.88215,44977
2.88953,45602
2.8969,44750
2.90428,45410
2.91167,45245
2.91903,45197
2.92642,45155
2.93378,46598
2.94117,45947
2.94855,45881
2.95592,45426
2.9633,46528
2.97067,45654
2.97805,45593
2.98542,44704
2.9928,45294
3.00018,46100
3.00755,45540
3.01493,46095
3.0223,45579
3.02968,47107
3.03705,45786
3.04443,45732
3.05182,46803
3.05918,46159
3.06657,45345
3.07393,45434
3.08132,46703
3.0887,46597
3.09607,46475
3.10345,45621
3.11082,47232
3.1182,46283
3.12557,46427
3.13295,46919
3.14033,48055
3.1477,45891
3.15508,46558
3.16245,45756
3.16983,47187
3.17722,46518
3.18458,47501
3.19197,46526
3.19933,47449
3.20672,48153
3.21408,47361
3.22147,46998
3.22885,48264
3.23622,46895
3.2436,47498
3.25097,48049
3.25835,47558
3.26573,47208
3.2731,46236
3.28048,47125
3.28785,48192
3.29523,46601
3.3026,46939
3.30998,48012
3.31737,47224
3.32473,48333
3.33212,48268
3.33948,46945
3.34687,47680
3.35425,48434
3.36162,47483
3.369,47208
3.37637,49667
3.38375,49547
3.39112,48516
3.3985,48737
3.40588,47840
3.41325,48818
3.42063,48719
3.428,48461
3.43538,48758
3.44277,49072
3.45013,50496
3.45752,50341
3.46488,51436
3.47227,50619
3.47963,50610
3.48702,49198
3.4944,51146
3.50177,49253
3.50915,50260
3.51652,49839
3.5239,49680
3.53128,49741
3.53865,50810
3.54603,48712
3.5534,49330
3.56078,48670
3.56815,48908
3.57553,50961
3.58292,49600
3.59028,50531
3.59767,49396
3.60503,50362
3.61242,50424
3.61978,50426
3.62717,48864
3.63455,50356
3.64192,50831
3.6493,49695
3.65667,50467
3.66405,50214
3.67143,50391
3.6788,50668
3.68618,50529
3.69355,50015
3.70093,49926
3.7083,52093
3.71568,50628
3.72307,50369
3.73043,50441
3.73782,50240
3.74518,51067
3.75257,51461
3.75995,51159
3.76732,50889
3.7747,50144
3.78207,51211
3.78945,52021
3.79682,50812
3.8042,51057
3.81158,52093
3.81895,51999
3.82633,53234
3.8337,53389
3.84108,52678
3.84847,52022
3.85583,51060
3.86322,51164
3.87058,51784
3.87797,52570
3.88533,52211
3.89272,51006
3.9001,51387
3.90747,51993
3.91485,52509
3.92222,52488
3.9296,52851
3.93698,52030
3.94435,52933
3.95173,52901
3.9591,52599
3.96648,52640
3.97385,53347
3.98123,53452
3.98862,51923
3.99598,53906
4.00337,52717
4.01073,51483
4.01812,53851
4.0255,52655
4.03287,52530
4.04025,54672
4.04762,52312
4.055,51329
4.06237,49419
4.06975,48572
4.07713,48049
4.0845,47045
4.09188,47527
4.09925,46884
4.10663,46874
4.11402,47301
4.12138,48445
4.12877,46620
4.13613,48716
4.14352,48534
4.15088,47360
4.15827,47659
4.16565,47815
4.17302,48894
4.1804,47891
4.18777,48995
4.19515,48909
4.20252,49609
4.2099,49470
4.21728,49216
4.22465,48960
4.23203,49786
4.2394,48971
4.24678,48165
4.25417,49554
4.26153,49714
4.26892,49480
4.27628,51487
4.28367,50034
4.29103,49725
4.29842,51346
4.3058,49129
4.31317,50812
4.32055,49697
4.32792,49670
4.3353,50607
4.34268,49532
4.35005,48883
4.35743,49467
4.3648,49398
4.37218,48932
4.37955,48251
4.38693,48726
4.39432,48671
4.40168,48007
4.40907,48768
4.41643,48144
4.42382,48096
4.4312,47300
4.43857,47288
4.44595,48753
4.45332,47197
4.4607,47886
4.46807,47590
4.47545,46996
4.48283,47719
4.4902,47352
4.49758,46838
4.50495,47770
4.51233,46512
4.51972,47262
4.52708,47248
4.53447,47045
4.54183,47271
4.54922,47337
4.55658,48848
4.56397,49471
4.57135,50384
4.57872,49910
4.5861,49324
4.59347,48087
4.60085,47764
4.60823,45990
4.6156,47554
4.62298,47649
4.63035,47321
4.63773,48721
4.6451,51945
4.65248,53566
4.65987,54212
4.66723,52692
4.67462,50700
4.68198,48699
4.68937,49575
4.69675,47750
4.70412,47771
4.7115,47480
4.71887,48218
4.72625,48900
4.73362,47277
4.741,47215
4.74838,47423
4.75575,48060
4.76313,47338
4.7705,47662
4.77788,47293
4.78527,47003
4.79263,47251
4.80002,47830
4.80738,46555
4.81477,47531
4.82213,47625
4.82952,48083
4.8369,48774
4.84427,48638
4.85165,47714
4.85902,47391
4.8664,47811
4.87377,47740
4.88115,49048
4.88853,49338
4.8959,49019
4.90328,48806
4.91065,48724
4.91803,48726
4.92542,50101
4.93278,51844
4.94017,52759
4.94753,51261
4.95492,51580
4.96228,51199
4.96967,50419
4.97705,49841
4.98442,49615
4.9918,51094
4.99917,49952
5.00655,49639
5.01393,51325
5.0213,50043
5.02868,50091
5.03605,50569
5.04343,50293
5.0508,50643
5.05818,49640
5.06557,50160
5.07293,50386
5.08032,50958
5.08768,51457
5.09507,51210
5.10245,51501
5.10982,51461
5.1172,51882
5.12457,51223
5.13195,53156
5.13932,52085
5.1467,52444
5.15408,52818
5.16145,51449
5.16883,50836
5.1762,52989
5.18358,51737
5.19097,52353
5.19833,52957
5.20572,53461
5.21308,53543
5.22047,54185
5.22783,53691
5.23522,53368
5.2426,53533
5.24997,53384
5.25735,55017
5.26472,55179
5.2721,54053
5.27948,54593
5.28685,54653
5.29423,55996
5.3016,56385
5.30898,57162
5.31635,59081
5.32373,57077
5.33112,54980
5.33848,56305
5.34587,55669
5.35323,55781
5.36062,57589
5.368,56957
5.37537,57908
5.38275,57490
5.39012,56428
5.3975,57106
5.40487,56145
5.41225,57867
5.41963,58766
5.427,58158
5.43438,58429
5.44175,61505
5.44913,60989
5.4565,59989
5.46388,59294
5.47127,60878
5.47863,61880
5.48602,61321
5.49338,62018
5.50077,62804
5.50815,60970
5.51552,61728
5.5229,62599
5.53027,62524
5.53765,61783
5.54502,63923
5.5524,63471
5.55978,64377
5.56715,64701
5.57453,64684
5.5819,64737
5.58928,65270
5.59667,65939
5.60403,66001
5.61142,67046
5.61878,66288
5.62617,66331
5.63353,69533
5.64092,71482
5.6483,76851
5.65567,76739
5.66305,73430
5.67042,71949
5.6778,71396
5.68518,71522
5.69255,71173
5.69993,71280
5.7073,73557
5.71468,72523
5.72205,75939
5.72943,87000
5.73682,103118
5.74418,107660
5.75157,101367
5.75893,96775
5.76632,85956
5.7737,80436
5.78107,76464
5.78845,76845
5.79582,75665
5.8032,80533
5.81057,87367
5.81795,92799
5.82533,87247
5.8327,81201
5.84008,77826
5.84745,76256
5.85483,74739
5.86222,75915
5.86958,75472
5.87697,74073
5.88433,72729
5.89172,73528
5.89908,72745
5.90647,73880
5.91385,73958
5.92122,72855
5.9286,72688
5.93597,74197
5.94335,77375
5.95073,88317
5.9581,92076
5.96548,84403
5.97285,78082
5.98023,74889
5.9876,73562
5.99498,71140
6.00237,72532
6.00973,74457
6.01712,72458
6.02448,74340
6.03187,74085
6.03923,73243
6.04662,72465
6.054,71976
6.06137,73287
6.06875,72147
6.07612,72940
6.0835,68680
6.09088,71821
6.09825,93437
6.10563,132576
6.113,142344
6.12038,111181
6.12775,84863
6.13513,74044
6.14252,70451
6.14988,67300
6.15727,67672
6.16463,66141
6.17202,66186
6.1794,64579
6.18677,63975
6.19415,62879
6.20152,61060
6.2089,60359
6.21627,58940
6.22365,58423
6.23103,58346
6.2384,58113
6.24578,55715
6.25315,55467
6.26053,57751
6.26792,56773
6.27528,56229
6.28267,54883
6.29003,55053
6.29742,54743
6.30478,54852
6.31217,54415
6.31955,54654
6.32692,52928
6.3343,54511
6.34167,54816
6.34905,53535
6.35643,53267
6.3638,52321
6.37118,53291
6.37855,51774
6.38593,52319
6.3933,52615
6.40068,51436
6.40807,53308
6.41543,53285
6.42282,54160
6.43018,56166
6.43757,63146
6.44495,73576
6.45232,69460
6.4597,60438
6.46707,54944
6.47445,53166
6.48182,52318
6.4892,52488
6.49658,51434
6.50395,51002
6.51133,51431
6.5187,51194
6.52608,50446
6.53347,50445
6.54083,51430
6.54822,50906
6.55558,50435
6.56297,50862
6.57033,50848
6.57772,49778
6.5851,51189
6.59247,52871
6.59985,54919
6.60722,57136
6.6146,54459
6.62197,53121
6.62935,50650
6.63673,50580
6.6441,50268
6.65148,49934
6.65885,51007
6.66623,48562
6.67362,48892
6.68098,49494
6.68837,49682
6.69573,49328
6.70312,50851
6.71048,49446
6.71787,49433
6.72525,50555
6.73262,51005
6.74,52747
6.74737,53588
6.75475,53314
6.76213,51710
6.7695,50390
6.77688,50435
6.78425,50326
6.79163,50858
6.799,52533
6.80638,52605
6.81377,51959
6.82113,55123
6.82852,56096
6.83588,52318
6.84327,50089
6.85065,48786
6.85802,48999
6.8654,49582
6.87277,49461
6.88015,49084
6.88752,49724
6.8949,48589
6.90228,48686
6.90965,49245
6.91703,49085
6.9244,49666
6.93178,49863
6.93917,48925
6.94653,48513
6.95392,47053
6.96128,47231
6.96867,49012
6.97603,48591
6.98342,48066
6.9908,47314
6.99817,47311
7.00555,48505
7.01292,46983
7.0203,48251
7.02768,50272
7.03505,51026
7.04243,50581
7.0498,51610
7.05718,50649
7.06455,48885
7.07193,47746
7.07932,47116
7.08668,47304
7.09407,47006
7.10143,46752
7.10882,47547
7.1162,48624
7.12357,52119
7.13095,51104
7.13832,48625
7.1457,46029
7.15307,47680
7.16045,48077
7.16783,47125
7.1752,46012
7.18258,45035
7.18995,46163
7.19733,45804
7.2047,45962
7.21208,45992
7.21947,45692
7.22683,45372
7.23422,45269
7.24158,43628
7.24897,45059
7.25635,45021
7.26372,47398
7.2711,48845
7.27847,50883
7.28585,50370
7.29322,47871
7.3006,46675
7.30798,45114
7.31535,46286
7.32273,45272
7.3301,45492
7.33748,44516
7.34487,45310
7.35223,45966
7.35962,46367
7.36698,46293
7.37437,45317
7.38173,45594
7.38912,44183
7.3965,44811
7.40387,44927
7.41125,44257
7.41862,43920
7.426,44966
7.43338,44517
7.44075,44173
7.44813,45304
7.4555,48804
7.46288,48106
7.47025,46161
7.47763,45234
7.48502,45228
7.49238,45541
7.49977,49225
7.50713,50900
7.51452,46929
7.5219,45014
7.52927,45301
7.53665,44261
7.54402,44470
7.5514,43610
7.55877,43701
7.56615,43259
7.57353,43525
7.5809,43987
7.58828,44667
7.59565,44963
7.60303,43871
7.61042,45579
7.61778,44526
7.62517,45507
7.63253,44941
7.63992,47042
7.64728,46879
7.65467,47214
7.66205,47646
7.66942,49156
7.6768,48914
7.68417,49133
7.69155,48906
7.69893,49954
7.7063,49086
7.71368,51029
7.72105,53029
7.72843,51592
7.7358,50789
7.74318,51315
7.75057,49798
7.75793,48114
7.76532,47984
7.77268,47357
7.78007,45842
7.78743,46479
7.79482,45521
7.8022,44887
7.80957,45983
7.81695,46129
7.82432,47483
7.8317,47964
7.83908,49668
7.84645,49092
7.85383,47275
7.8612,46087
7.86858,45197
7.87595,44303
7.88333,44350
7.89072,43938
7.89808,43511
7.90547,43575
7.91283,44182
7.92022,43613
7.9276,43508
7.93497,42594
7.94235,42572
7.94972,43286
7.9571,43379
7.96447,43535
7.97185,43280
7.97923,42978
7.9866,42654
7.99398,42958
8.00135,42903
8.00873,41919
8.01612,42263
8.02348,42376
8.03087,42705
8.03823,41982
8.04562,42881
8.05298,43856
8.06037,43692
8.06775,44259
8.07512,43141
8.0825,43130
8.08987,43913
8.09725,43520
8.10463,44901
8.112,45183
8.11938,45588
8.12675,43768
8.13413,44720
8.1415,44990
8.14888,45467
8.15627,45358
8.16363,45363
8.17102,44872
8.17838,46962
8.18577,45581
8.19315,46605
8.20052,48727
8.2079,51996
8.21527,51659
8.22265,49385
8.23002,47564
8.2374,47806
8.24478,44882
8.25215,44986
8.25953,43733
8.2669,43672
8.27428,44000
8.28167,42656
8.28903,43034
8.29642,43764
8.30378,43875
8.31117,46446
8.31853,47229
8.32592,44338
8.3333,41955
8.34067,42296
8.34805,41523
8.35542,41703
8.3628,40725
8.37017,40675
8.37755,40992
8.38493,40242
8.3923,39605
8.39968,40687
8.40705,41003
8.41443,41399
8.42182,40792
8.42918,40550
8.43657,39977
8.44393,40045
8.45132,40845
8.45868,40988
8.46607,40834
8.47345,40240
8.48082,40356
8.4882,39352
8.49557,39297
8.50295,40026
8.51033,39512
8.5177,39783
8.52508,39764
8.53245,39297
8.53983,39474
8.5472,39882
8.55458,39884
8.56197,39521
8.56933,39126
8.57672,38954
8.58408,39436
8.59147,39766
8.59885,38786
8.60622,38824
8.6136,38937
8.62097,39587
8.62835,39230
8.63572,39965
8.6431,39738
8.65048,41045
8.65785,39820
8.66523,40107
8.6726,40191
8.67998,40060
8.68737,40303
8.69473,40199
8.70212,39461
8.70948,39502
8.71687,40088
8.72423,39142
8.73162,39623
8.739,39698
8.74637,39864
8.75375,39271
8.76112,39217
8.7685,40249
8.77588,38849
8.78325,40081
8.79063,40326
8.798,38996
8.80538,39708
8.81275,40142
8.82013,39713
8.82752,40075
8.83488,39973
8.84227,39526
8.84963,39641
8.85702,39557
8.8644,39317
8.87177,38678
8.87915,38304
8.88652,38353
8.8939,38564
8.90127,39819
8.90865,39730
8.91603,39144
8.9234,39159
8.93078,38910
8.93815,39152
8.94553,39272
8.9529,39697
8.96028,39887
8.96767,39140
8.97503,39194
8.98242,39943
8.98978,38622
8.99717,39351
9.00455,38699
9.01192,40084
9.0193,38634
9.02667,38329
9.03405,38011
9.04142,38602
9.0488,38804
9.05618,37850
9.06355,39402
9.07093,38950
9.0783,39730
9.08568,39400
9.09307,38848
9.10043,39271
9.10782,39173
9.11518,38642
9.12257,39813
9.12993,39794
9.13732,39831
9.1447,39513
9.15207,38421
9.15945,38277
9.16682,38960
9.1742,37790
9.18158,38514
9.18895,38216
9.19633,39032
9.2037,38447
9.21108,39304
9.21845,39361
9.22583,40170
9.23322,39254
9.24058,39331
9.24797,39454
9.25533,39820
9.26272,40017
9.2701,40818
9.27747,41025
9.28485,42594
9.29222,41789
9.2996,40279
9.30697,40231
9.31435,39914
9.32173,38902
9.3291,40138
9.33648,39075
9.34385,38756
9.35123,38584
9.35862,39402
9.36598,37997
9.37337,38014
9.38073,39902
9.38812,41049
9.39548,44128
9.40287,45349
9.41025,45297
9.41762,44171
9.425,41722
9.43237,39748
9.43975,40453
9.44713,40149
9.4545,41588
9.46188,40027
9.46925,38793
9.47663,38751
9.484,38995
9.49138,38972
9.49877,39015
9.50613,38859
9.51352,38203
9.52088,37521
9.52827,37311
9.53563,37083
9.54302,36790
9.5504,38833
9.55777,38699
9.56515,37917
9.57252,38133
9.5799,36536
9.58728,37594
9.59465,37569
9.60203,38190
9.6094,38033
9.61678,38498
9.62415,38174
9.63153,37694
9.63892,36754
9.64628,37966
9.65367,37092
9.66103,37582
9.66842,38464
9.6758,38131
9.68317,38025
9.69055,37440
9.69792,38326
9.7053,37803
9.71267,37429
9.72005,37935
9.72743,37953
9.7348,38554
9.74218,37380
9.74955,38071
9.75693,39030
9.76432,37844
9.77168,37578
9.77907,37330
9.78643,37728
9.79382,37714
9.80118,38361
9.80857,38302
9.81595,38060
9.82332,38146
9.8307,37648
9.83807,38331
9.84545,37826
9.85283,37202
9.8602,37382
9.86758,37736
9.87495,37026
9.88233,38491
9.8897,37168
9.89708,39198
9.90447,37396
9.91183,37955
9.91922,37545
9.92658,37604
9.93397,37109
9.94135,37631
9.94872,37586
9.9561,37663
9.96347,37594
9.97085,37338
9.97822,37760
9.9856,36676
9.99298,38187
10.0004,37148
10.0077,37223
10.0151,37554
10.0225,38023
10.0299,37376
10.0372,37710
10.0446,37543
10.052,37566
10.0594,37584
10.0667,37140
10.0741,37710
10.0815,37788
10.0889,37474
10.0963,37956
10.1036,37637
10.111,38316
10.1184,37959
10.1258,37864
10.1331,38716
10.1405,36682
10.1479,37824
10.1553,37387
10.1626,37548
10.17,37656
10.1774,37357
10.1848,37432
10.1921,38358
10.1995,38224
10.2069,37142
10.2143,37959
10.2217,38083
10.229,38364
10.2364,36819
10.2438,37377
10.2512,37742
10.2585,37400
10.2659,37049
10.2733,38167
10.2807,38407
10.288,38467
10.2954,38283
10.3028,38280
10.3102,38596
10.3175,37565
10.3249,37895
10.3323,37606
10.3397,37634
10.3471,38219
10.3544,38227
10.3618,38131
10.3692,37738
10.3766,37772
10.3839,36587
10.3913,38219
10.3987,38055
10.4061,37453
10.4134,37771
10.4208,38406
10.4282,37476
10.4356,38875
10.4429,38527
10.4503,39324
10.4577,39364
10.4651,39089
10.4724,38558
10.4798,37915
10.4872,38086
10.4946,38182
10.502,37490
10.5093,37593
10.5167,38184
10.5241,38602
10.5315,37900
10.5388,37964
10.5462,38576
10.5536,37074
10.561,38306
10.5683,37752
10.5757,38342
10.5831,38132
10.5905,38032
10.5978,37464
10.6052,38996
10.6126,38078
10.62,38193
10.6274,36794
10.6347,38301
10.6421,38808
10.6495,37744
10.6569,38089
10.6642,37827
10.6716,38014
10.679,38171
10.6864,38693
10.6937,38476
10.7011,38227
10.7085,36872
10.7159,38191
10.7232,37967
10.7306,38141
10.738,38188
10.7454,38217
10.7528,38161
10.7601,37933
10.7675,38470
10.7749,37074
10.7823,36698
10.7896,37495
10.797,38536
10.8044,38510
10.8118,38124
10.8191,37999
10.8265,37519
10.8339,37559
10.8413,38421
10.8486,38571
10.856,37540
10.8634,37984
10.8708,37139
10.8781,37552
10.8855,38031
10.8929,37699
10.9003,37685
10.9077,38510
10.915,42925
10.9224,44758
10.9298,42056
10.9372,39766
10.9445,38867
10.9519,38279
10.9593,38476
10.9667,37649
10.974,39082
10.9814,38698
10.9888,38821
10.9962,37305
11.0035,37400
11.0109,38175
11.0183,37826
11.0257,37733
11.0331,37959
11.0404,37877
11.0478,39173
11.0552,39058
11.0626,38335
11.0699,39017
11.0773,38661
11.0847,37031
11.0921,37940
11.0994,37622
11.1068,38094
11.1142,37856
11.1216,39029
11.1289,39291
11.1363,37030
11.1437,37883
11.1511,39046
11.1585,38964
11.1658,37333
11.1732,38293
11.1806,38657
11.188,38228
11.1953,38497
11.2027,38395
11.2101,37834
11.2175,37952
11.2248,38974
11.2322,37097
11.2396,38179
11.247,38709
11.2543,38186
11.2617,38642
11.2691,38592
11.2765,38284
11.2839,38373
11.2912,38241
11.2986,37342
11.306,38458
11.3134,39123
11.3207,39329
11.3281,38824
11.3355,39059
11.3429,38443
11.3502,38579
11.3576,38247
11.365,38819
11.3724,38412
11.3797,38781
11.3871,38678
11.3945,37800
11.4019,38240
11.4092,38344
11.4166,38503
11.424,37945
11.4314,38968
11.4388,38491
11.4461,38262
11.4535,38426
11.4609,37188
11.4683,38348
11.4756,39277
11.483,38798
11.4904,38118
11.4978,37579
11.5051,38589
11.5125,37657
11.5199,38576
11.5273,37901
11.5346,37850
11.542,38214
11.5494,37602
11.5568,38683
11.5642,37920
11.5715,38007
11.5789,38790
11.5863,37684
11.5937,37851
11.601,37964
11.6084,38892
11.6158,38384
11.6232,38772
11.6305,38154
11.6379,38397
11.6453,38883
11.6527,38388
11.66,37660
11.6674,37896
11.6748,37720
11.6822,38349
11.6896,39066
11.6969,38396
11.7043,38551
11.7117,38553
11.7191,38705
11.7264,38162
11.7338,37628
11.7412,38445
11.7486,39143
11.7559,39258
11.7633,39055
11.7707,38578
11.7781,39589
11.7854,38188
11.7928,38199
11.8002,38805
11.8076,38143
11.8149,39645
11.8223,38497
11.8297,38616
11.8371,38859
11.8445,38551
11.8518,38988
11.8592,38550
11.8666,39501
11.874,38676
11.8813,38082
11.8887,38976
11.8961,38933
11.9035,39185
11.9108,37500
11.9182,38230
11.9256,38209
11.933,38555
11.9403,38710
11.9477,39291
11.9551,37749
11.9625,39158
11.9699,37981
11.9772,38927
11.9846,38561
11.992,38790
11.9994,39277
12.0067,38748
12.0141,38092
12.0215,37325
12.0289,38219
12.0362,38502
12.0436,38626
12.051,38537
12.0584,39263
12.0657,39226
12.0731,38522
12.0805,39168
12.0879,39358
12.0953,38485
12.1026,39693
12.11,39479
12.1174,39075
12.1248,39385
12.1321,38248
12.1395,38997
12.1469,38592
12.1543,38434
12.1616,38780
12.169,38920
12.1764,38430
12.1838,39386
12.1911,39382
12.1985,38827
12.2059,38252
12.2133,39099
12.2206,39041
12.228,38313
12.2354,39871
12.2428,38888
12.2502,39333
12.2575,39332
12.2649,39864
12.2723,41320
12.2797,40243
12.287,39913
12.2944,38776
12.3018,38173
12.3092,38730
12.3165,39020
12.3239,40192
12.3313,39425
12.3387,39632
12.346,39134
12.3534,39451
12.3608,38276
12.3682,38501
12.3756,39173
12.3829,38519
12.3903,38411
12.3977,39428
12.4051,38641
12.4124,39952
12.4198,37906
12.4272,38575
12.4346,38009
12.4419,38379
12.4493,39562
12.4567,40072
12.4641,39048
12.4714,40196
12.4788,38724
12.4862,39320
12.4936,37997
12.501,38695
12.5083,39561
12.5157,40211
12.5231,39540
12.5305,40055
12.5378,40218
12.5452,38850
12.5526,38650
12.56,39931
12.5673,39034
12.5747,39912
12.5821,39611
12.5895,39276
12.5968,39707
12.6042,38571
12.6116,40245
12.619,39252
12.6263,39623
12.6337,38527
12.6411,39962
12.6485,40491
12.6559,39251
12.6632,38890
12.6706,38941
12.678,38974
12.6854,38929
12.6927,39332
12.7001,40720
12.7075,40174
12.7149,40509
12.7222,39316
12.7296,39423
12.737,39642
12.7444,39148
12.7517,38885
12.7591,39783
12.7665,39303
12.7739,38420
12.7813,40192
12.7886,40625
12.796,39204
12.8034,39447
12.8108,39175
12.8181,39055
12.8255,38879
12.8329,39679
12.8403,39159
12.8476,39064
12.855,38944
12.8624,40098
12.8698,39467
12.8771,39730
12.8845,39148
12.8919,39161
12.8993,39349
12.9067,39747
12.914,39432
12.9214,40868
12.9288,40300
12.9362,39495
12.9435,39740
12.9509,40204
12.9583,40124
12.9657,40235
12.973,39532
12.9804,40354
12.9878,40442
12.9952,39565
13.0025,39747
13.0099,40479
13.0173,39745
13.0247,39892
13.0321,39623
13.0394,39763
13.0468,39473
13.0542,38725
13.0616,39771
13.0689,39528
13.0763,38868
13.0837,39493
13.0911,39788
13.0984,40313
13.1058,39641
13.1132,40153
13.1206,40399
13.1279,40608
13.1353,40293
13.1427,39650
13.1501,40107
13.1574,39972
13.1648,40091
13.1722,40622
13.1796,39444
13.187,39849
13.1943,40694
13.2017,40037
13.2091,39893
13.2165,39918
13.2238,40589
13.2312,40175
13.2386,39555
13.246,40422
13.2533,40931
13.2607,39317
13.2681,41174
13.2755,39210
13.2828,40572
13.2902,41192
13.2976,40000
13.305,40614
13.3124,40036
13.3197,40977
13.3271,40453
13.3345,40814
13.3419,40407
13.3492,40423
13.3566,40434
13.364,39719
13.3714,40610
13.3787,40191
13.3861,40765
13.3935,40361
13.4009,39598
13.4082,39345
13.4156,40348
13.423,41121
13.4304,41285
13.4378,41254
13.4451,40932
13.4525,41292
13.4599,41501
13.4673,39513
13.4746,40962
13.482,40828
13.4894,40129
13.4968,40675
13.5041,39310
13.5115,41134
13.5189,39934
13.5263,41094
13.5336,40151
13.541,39872
13.5484,40402
13.5558,40482
13.5631,40947
13.5705,40291
13.5779,40860
13.5853,40215
13.5927,40898
13.6,39979
13.6074,41289
13.6148,39519
13.6222,39661
13.6295,40424
13.6369,41110
13.6443,40265
13.6517,40503
13.659,39722
13.6664,40158
13.6738,40223
13.6812,41030
13.6885,40591
13.6959,40293
13.7033,41305
13.7107,41137
13.7181,40172
13.7254,40594
13.7328,41184
13.7402,40515
13.7476,40541
13.7549,41998
13.7623,40909
13.7697,41044
13.7771,40917
13.7844,40990
13.7918,40839
13.7992,41600
13.8066,41507
13.8139,41703
13.8213,41569
13.8287,41719
13.8361,41447
13.8435,40520
13.8508,40570
13.8582,41440
13.8656,40270
13.873,42338
13.8803,40194
13.8877,40598
13.8951,41204
13.9025,41234
13.9098,41740
13.9172,40078
13.9246,40453
13.932,40861
13.9393,42524
13.9467,41281
13.9541,41057
13.9615,41283
13.9688,41233
13.9762,41143
13.9836,40914
13.991,40204
13.9984,41332
14.0057,42446
14.0131,41096
14.0205,41508
14.0279,40747
14.0352,40666
14.0426,41164
14.05,41122
14.0574,41636
14.0647,41691
14.0721,40739
14.0795,40934
14.0869,40970
14.0942,41182
14.1016,41563
14.109,41252
14.1164,41996
14.1238,41942
14.1311,41187
14.1385,42071
14.1459,41546
14.1533,41309
14.1606,41532
14.168,41767
14.1754,42138
14.1828,41292
14.1901,42315
14.1975,41004
14.2049,41434
14.2123,41487
14.2196,41659
14.227,40935
14.2344,41867
14.2418,41182
14.2492,43303
14.2565,42783
14.2639,41451
14.2713,41722
14.2787,41706
14.286,42229
14.2934,41789
14.3008,42454
14.3082,42295
14.3155,42225
14.3229,41658
14.3303,42557
14.3377,41356
14.345,42944
14.3524,42150
14.3598,42984
14.3672,41510
14.3745,41615
14.3819,41196
14.3893,42174
14.3967,41821
14.4041,42036
14.4114,41121
14.4188,42639
14.4262,42872
14.4336,42549
14.4409,42295
14.4483,42585
14.4557,42588
14.4631,43285
14.4704,42990
14.4778,41764
14.4852,41890
14.4926,42102
14.4999,42891
14.5073,43256
14.5147,43044
14.5221,42227
14.5295,42955
14.5368,42802
14.5442,42551
14.5516,43553
14.559,42885
14.5663,41652
14.5737,42275
14.5811,42377
14.5885,42954
14.5958,43321
14.6032,42208
14.6106,42788
14.618,42675
14.6253,42943
14.6327,43936
14.6401,42685
14.6475,43108
14.6549,43926
14.6622,42918
14.6696,43075
14.677,43257
14.6844,42160
14.6917,42741
14.6991,43699
14.7065,43575
14.7139,43000
14.7212,43447
14.7286,43512
14.736,43495
14.7434,44577
14.7507,43220
14.7581,44023
14.7655,42573
14.7729,44908
14.7803,43949
14.7876,42806
14.795,44340
14.8024,44373
14.8098,44355
14.8171,42588
14.8245,43169
14.8319,44450
14.8393,44857
14.8466,44435
14.854,44985
14.8614,43474
14.8688,44667
14.8761,44197
14.8835,43903
14.8909,44652
14.8983,43940
14.9056,44725
14.913,44874
14.9204,44831
14.9278,45261
14.9352,45505
14.9425,45712
14.9499,46161
14.9573,44179
14.9647,46192
14.972,45681
14.9794,46482
14.9868,46600
14.9942,46010
15.0015,46178
15.0089,46465
15.0163,45762
15.0237,46159
15.031,46041
15.0384,46063
15.0458,45915
15.0532,45747
15.0606,46616
15.0679,46137
15.0753,45930
15.0827,45544
15.0901,45565
15.0974,46618
15.1048,45195
15.1122,45702
15.1196,45697
15.1269,47115
15.1343,46628
15.1417,46945
15.1491,47144
15.1564,46313
15.1638,46648
15.1712,46918
15.1786,45930
15.186,47091
15.1933,46646
15.2007,48323
15.2081,47255
15.2155,47450
15.2228,47843
15.2302,47402
15.2376,47825
15.245,46373
15.2523,46390
15.2597,46658
15.2671,46069
15.2745,48226
15.2818,46770
15.2892,47481
15.2966,47890
15.304,47835
15.3113,48083
15.3187,46953
15.3261,48187
15.3335,48302
15.3409,48502
15.3482,47350
15.3556,47204
15.363,48182
15.3704,47740
15.3777,49279
15.3851,48890
15.3925,48939
15.3999,48352
15.4072,48019
15.4146,48283
15.422,50057
15.4294,48570
15.4367,49232
15.4441,49969
15.4515,49772
15.4589,48934
15.4663,49723
15.4736,50070
15.481,49200
15.4884,50009
15.4958,49868
15.5031,48984
15.5105,49029
15.5179,49858
15.5253,48988
15.5326,50152
15.54,49889
15.5474,50646
15.5548,51357
15.5621,50300
15.5695,50072
15.5769,50153
15.5843,51136
15.5917,51044
15.599,50371
15.6064,51217
15.6138,51281
15.6212,51159
15.6285,51705
15.6359,51722
15.6433,51734
15.6507,51238
15.658,51442
15.6654,52178
15.6728,52785
15.6802,52383
15.6875,51167
15.6949,53345
15.7023,52985
15.7097,52093
15.717,51878
15.7244,52453
15.7318,52915
15.7392,52022
15.7466,52952
15.7539,52342
15.7613,52963
15.7687,52919
15.7761,52844
15.7834,54065
15.7908,54460
15.7982,53832
15.8056,53472
15.8129,53993
15.8203,54200
15.8277,53739
15.8351,55467
15.8424,53860
15.8498,55622
15.8572,54327
15.8646,54004
15.872,55145
15.8793,55604
15.8867,56975
15.8941,55711
15.9015,56950
15.9088,57241
15.9162,56526
15.9236,55613
15.931,57333
15.9383,57029
15.9457,57394
15.9531,56928
15.9605,57862
15.9678,57568
15.9752,58016
15.9826,56909
15.99,57602
15.9974,58194
16.0047,58743
16.0121,58834
16.0195,58426
16.0269,60009
16.0342,59510
16.0416,60219
16.049,61293
16.0563,61207
16.0637,62051
16.0711,61443
16.0785,60804
16.0859,61773
16.0932,62194
16.1006,61501
16.108,63536
16.1154,63242
16.1227,62850
16.1301,63761
16.1375,63984
16.1449,64691
16.1522,65501
16.1596,67123
16.167,67957
16.1744,66806
16.1818,67215
16.1891,66661
16.1965,66322
16.2039,64276
16.2113,65062
16.2186,65916
16.226,63656
16.2334,64918
16.2408,63839
16.2481,64146
16.2555,63824
16.2629,62868
16.2703,63839
16.2777,64121
16.285,63398
16.2924,63317
16.2998,62429
16.3072,63489
16.3145,64470
16.3219,63499
16.3293,63086
16.3366,64064
16.344,65118
16.3514,63859
16.3588,63702
16.3662,65466
16.3735,65627
16.3809,64762
16.3883,64764
16.3957,64304
16.4031,65155
16.4104,64660
16.4178,65870
16.4252,65568
16.4325,67038
16.4399,67609
16.4473,67944
16.4547,67202
16.4621,66656
16.4694,67739
16.4768,66314
16.4842,67296
16.4916,66819
16.4989,68085
16.5063,66702
16.5137,67236
16.5211,67724
16.5284,67068
16.5358,67995
16.5432,69229
16.5506,69990
16.558,68705
16.5653,67867
16.5727,69388
16.5801,67459
16.5875,70063
16.5948,68610
16.6022,68679
16.6096,69027
16.617,68504
16.6243,68558
16.6317,68213
16.6391,67492
16.6465,68137
16.6538,69989
16.6612,66471
16.6686,69000
16.676,68857
16.6834,68819
16.6907,68014
16.6981,67835
16.7055,68907
16.7129,69458
16.7202,68359
16.7276,68290
16.735,69161
16.7423,68000
16.7497,69017
16.7571,69394
16.7645,68973
16.7719,69500
16.7792,69089
16.7866,69066
16.794,67981
16.8014,68222
16.8088,68367
16.8161,68939
16.8235,69999
16.8309,67718
16.8382,68500
16.8456,69215
16.853,69534
16.8604,69805
16.8678,69216
16.8751,69239
16.8825,69519
16.8899,69818
16.8973,69703
16.9046,69741
16.912,69476
16.9194,69903
16.9268,69931
16.9341,70957
16.9415,69437
16.9489,69238
16.9563,69081
16.9637,70787
16.971,70034
16.9784,71884
16.9858,71725
16.9932,70662
17.0005,68608
17.0079,70965
17.0153,69642
17.0227,70536
17.03,69664
17.0374,69696
17.0448,69873
17.0522,69969
17.0595,70533
17.0669,70644
17.0743,68135
17.0817,68753
17.0891,71317
17.0964,69840
17.1038,70526
17.1112,69771
17.1185,69983
17.1259,70433
17.1333,70168
17.1407,69722
17.1481,69220
17.1554,70093
17.1628,71179
17.1702,69252
17.1776,69428
17.1849,70189
17.1923,69416
17.1997,70903
17.2071,70319
17.2144,70114
17.2218,68647
17.2292,70819
17.2366,69621
17.244,68800
17.2513,71162
17.2587,70521
17.2661,71378
17.2735,70631
17.2808,70861
17.2882,69889
17.2956,71116
17.303,70314
17.3103,71059
17.3177,71502
17.3251,70344
17.3325,70718
17.3398,70749
17.3472,71015
17.3546,70284
17.362,71048
17.3694,72085
17.3767,70671
17.3841,70498
17.3915,70139
17.3988,72346
17.4062,71165
17.4136,71514
17.421,72150
17.4284,71753
17.4357,72040
17.4431,71139
17.4505,70600
17.4579,70640
17.4652,70692
17.4726,71199
17.48,70435
17.4874,71128
