D:\Data GC-MS\2017\ST\BZ\BZ 90% EVAP.D 09 Feb 17  11:07 am
Start of data points
1.29385,6139043
1.3006,5964323
1.30733,5826754
1.31408,5701139
1.32082,5589007
1.32757,5487528
1.3343,5348500
1.34105,5219741
1.34778,5067723
1.35453,4929891
1.36128,4808165
1.36802,4699515
1.37477,4665760
1.3815,4650806
1.38825,4685702
1.39498,4749973
1.40173,4808286
1.40848,4889657
1.41522,4982740
1.42197,5056853
1.4287,5128826
1.43545,5198121
1.44218,5226663
1.44893,5250068
1.45568,5232108
1.46242,5154132
1.46917,5060957
1.4759,4905615
1.48265,4712309
1.48938,4500876
1.51025,12096924
1.51763,11491308
1.525,11055331
1.53238,10728812
1.53975,10521268
1.54713,10403405
1.55452,10320054
1.56188,10290358
1.56927,10231861
1.57663,10176519
1.58402,10112237
1.59138,9998865
1.59877,9859368
1.60615,9690527
1.61352,9431950
1.6209,9219749
1.62827,8938903
1.63565,8644536
1.64303,8299371
1.6504,7950057
1.65778,7595017
1.66515,7238034
1.67253,6878016
1.6799,6517889
1.68728,6161998
1.69467,5794558
1.70203,5452066
1.70942,5126574
1.71678,4802382
1.72417,4499900
1.73155,4208508
1.73892,3946378
1.7463,3666277
1.75367,3434918
1.76105,3196905
1.76842,2971740
1.7758,2773344
1.78318,2566452
1.79055,2400907
1.79793,2284032
1.8053,2170012
1.81268,2021527
1.82007,1886990
1.82743,1757489
1.83482,1634187
1.84218,1522345
1.84957,1425487
1.85693,1336798
1.86432,1241982
1.8717,1156139
1.87907,1084655
1.88645,1047003
1.89382,1010655
1.9012,954142
1.90858,908970
1.91595,861401
1.92333,822125
1.9307,787486
1.93808,791771
1.94545,792339
1.95283,769640
1.96022,731905
1.96758,695728
1.97497,665967
1.98233,642402
1.98972,614523
1.9971,590743
2.00447,556197
2.01185,525936
2.01922,496604
2.0266,460800
2.03397,441358
2.04135,425131
2.04873,402636
2.0561,377687
2.06348,355251
2.07085,327284
2.07823,309835
2.08562,296496
2.09298,280390
2.10037,265042
2.10773,250326
2.11512,236098
2.12248,229356
2.12987,228366
2.13725,225868
2.14462,219309
2.152,216500
2.15937,210193
2.16675,203562
2.17412,194046
2.1815,185873
2.18888,178515
2.19625,170355
2.20363,166967
2.211,160257
2.21838,156859
2.22577,161184
2.23313,172911
2.24052,173966
2.24788,172576
2.25527,176443
2.26263,185027
2.27002,195063
2.2774,196339
2.28477,193891
2.29215,187108
2.29952,188076
2.3069,203635
2.31428,221997
2.32165,226121
2.32903,219308
2.3364,214186
2.34378,210523
2.35115,203891
2.35853,200884
2.36592,196294
2.37328,193641
2.38067,188589
2.38803,197704
2.39542,228147
2.4028,294195
2.41017,430735
2.41755,499985
2.42492,506294
2.4323,524426
2.43967,530195
2.44705,515860
2.45443,492547
2.4618,469252
2.46918,440488
2.47655,444883
2.48393,605552
2.49132,770791
2.49868,783452
2.50607,737369
2.51343,692825
2.52082,650169
2.52818,620296
2.53557,589670
2.54295,543371
2.55032,493722
2.5577,449577
2.56507,416986
2.57245,410748
2.57983,422243
2.5872,510030
2.59458,781129
2.60195,976970
2.60933,996685
2.6167,987487
2.62408,951884
2.63147,918609
2.63883,858393
2.64622,793034
2.65358,725462
2.66097,643529
2.66835,573610
2.67572,498501
2.6831,448236
2.69047,403270
2.69785,435687
2.70522,609309
2.7126,723806
2.71998,709555
2.72735,670817
2.73473,632942
2.7421,612163
2.74948,621895
2.75685,613925
2.76423,586634
2.77162,529427
2.77898,486404
2.78637,435909
2.79373,408234
2.80112,386950
2.8085,363009
2.81587,334999
2.82325,325797
2.83062,316495
2.838,296866
2.84537,273208
2.85275,260131
2.86013,273231
2.8675,287539
2.87488,285497
2.88225,266297
2.88963,264411
2.89702,264088
2.90438,263774
2.91177,267746
2.91913,267102
2.92652,254097
2.93388,255326
2.94127,298896
2.94865,390380
2.95602,497745
2.9634,535788
2.97077,507274
2.97815,481634
2.98553,444599
2.9929,409913
3.00028,375408
3.00765,383682
3.01503,455118
3.0224,498153
3.02978,530350
3.03717,668061
3.04453,769887
3.05192,763983
3.05928,733706
3.06667,720604
3.07405,697378
3.08142,634422
3.0888,556023
3.09617,489515
3.10355,421762
3.11092,373534
3.1183,367905
3.12568,429499
3.13305,464790
3.14043,460464
3.1478,459854
3.15518,460760
3.16257,447847
3.16993,434622
3.17732,425437
3.18468,422269
3.19207,410342
3.19943,384894
3.20682,386215
3.2142,489177
3.22157,776889
3.22895,963756
3.23632,957217
3.2437,927374
3.25108,896009
3.25845,863201
3.26583,808409
3.2732,847509
3.28058,963880
3.28795,1005230
3.29533,933776
3.30272,846017
3.31008,788418
3.31747,727107
3.32483,739884
3.33222,891883
3.33958,996964
3.34697,996085
3.35435,916500
3.36172,851094
3.3691,767999
3.37647,731024
3.38385,886786
3.39123,1357841
3.3986,1651970
3.40598,1819817
3.41335,2012421
3.42073,3104787
3.4281,7110685
3.43548,10950255
3.44287,11487756
3.45023,10578154
3.45762,9530873
3.46498,8566378
3.47237,7439352
3.47975,6652391
3.48712,5898020
3.4945,4934767
3.50187,4152498
3.50925,3464331
3.51662,2793940
3.524,2237602
3.53138,1758604
3.53875,1385321
3.54613,1138805
3.5535,1051381
3.56088,954569
3.56827,860668
3.57563,791031
3.58302,732557
3.59038,657049
3.59777,564850
3.60513,481237
3.61252,421506
3.6199,405866
3.62727,407879
3.63465,401769
3.64202,402538
3.6494,405880
3.65678,457225
3.66415,556564
3.67153,595191
3.6789,598380
3.68628,645753
3.69365,708602
3.70103,721399
3.70842,716274
3.71578,693030
3.72317,643877
3.73053,595978
3.73792,568054
3.7453,534860
3.75267,505770
3.76005,488989
3.76742,480324
3.7748,669341
3.78217,1331801
3.78955,1901874
3.79693,1949555
3.8043,1788737
3.81168,1614099
3.81905,1385463
3.82643,1122202
3.83382,870221
3.84118,693230
3.84857,564275
3.85593,500014
3.86332,547813
3.87068,610125
3.87807,589480
3.88545,525305
3.89282,477512
3.9002,451673
3.90757,452116
3.91495,458267
3.92232,453067
3.9297,428984
3.93708,406950
3.94445,378657
3.95183,348208
3.9592,351449
3.96658,371312
3.97397,395213
3.98133,425982
3.98872,427217
3.99608,419552
4.00347,414427
4.01083,403594
4.01822,394884
4.0256,374728
4.03297,352818
4.04035,380070
4.04772,488431
4.0551,576603
4.06248,611874
4.06985,607439
4.07723,551420
4.0846,485524
4.09198,418649
4.09935,385154
4.10673,402514
4.11412,466519
4.12148,603692
4.12887,695664
4.13623,669825
4.14362,617158
4.151,558687
4.15837,485042
4.16575,405820
4.17312,379143
4.1805,412341
4.18787,459901
4.19525,597527
4.20263,964856
4.21,1275358
4.21738,1320428
4.22475,1216967
4.23213,1049196
4.23952,894912
4.24688,774563
4.25427,659449
4.26163,576273
4.26902,535693
4.27638,518630
4.28377,512650
4.29115,526601
4.29852,529497
4.3059,557857
4.31327,565547
4.32065,540076
4.32803,490981
4.3354,463802
4.34278,459499
4.35015,475905
4.35753,469378
4.3649,450440
4.37228,416826
4.37967,398050
4.38703,371897
4.39442,368805
4.40178,381854
4.40917,384179
4.41655,416129
4.42392,474412
4.4313,507131
4.43867,492110
4.44605,478354
4.45342,531064
4.4608,631605
4.46818,747704
4.47555,837830
4.48293,847903
4.4903,825719
4.49768,766800
4.50505,729986
4.51243,706015
4.51982,673005
4.52718,894393
4.53457,2915489
4.54193,7793234
4.54932,11601293
4.5567,11973751
4.56407,10449331
4.57145,7955092
4.57882,5293121
4.5862,3219702
4.59357,1942719
4.60095,1274387
4.60833,919659
4.6157,937285
4.62308,3389912
4.63045,12496525
4.63783,22639806
4.64522,27864240
4.65258,28104828
4.65997,24822392
4.66733,18367290
4.67472,10737635
4.68208,5662980
4.68947,2924097
4.69685,1580082
4.70422,962176
4.7116,700281
4.71897,630193
4.72635,607084
4.73373,559684
4.7411,502705
4.74848,465122
4.75585,456160
4.76323,439163
4.7706,384155
4.77798,326662
4.78537,299437
4.79273,314003
4.80012,331999
4.80748,366838
4.81487,448136
4.82225,526943
4.82962,583623
4.837,641889
4.84437,704105
4.85175,864454
4.85912,942026
4.8665,898226
4.87388,830286
4.88125,766712
4.88863,690704
4.896,610486
4.90338,635790
4.91077,1788469
4.91813,7051043
4.92552,14434340
4.93288,17219532
4.94027,14785978
4.94763,10060609
4.95502,5847629
4.9624,3382066
4.96977,2542589
4.97715,2242595
4.98452,1724429
4.9919,1164392
4.99928,751814
5.00665,521221
5.01403,403545
5.0214,340128
5.02878,310158
5.03615,326892
5.04353,386473
5.05092,440188
5.05828,526631
5.06567,649654
5.07303,712840
5.08042,704690
5.08778,692813
5.09517,621258
5.10255,550884
5.10992,500889
5.1173,503025
5.12467,504215
5.13205,490584
5.13943,434239
5.1468,364106
5.15418,315479
5.16155,313550
5.16893,338374
5.1763,435578
5.18368,575204
5.19107,641055
5.19843,567524
5.20582,442479
5.21318,357599
5.22057,328477
5.22795,334536
5.23532,370178
5.2427,449803
5.25007,544107
5.25745,639813
5.26482,767137
5.2722,785495
5.27958,730570
5.28695,877043
5.29433,1616343
5.3017,2448291
5.30908,2445915
5.31647,1931609
5.32383,1317512
5.33122,921202
5.33858,666187
5.34597,530472
5.35333,487872
5.36072,541964
5.3681,701916
5.37547,857933
5.38285,850547
5.39022,732458
5.3976,648665
5.40498,581153
5.41235,524811
5.41973,476638
5.4271,457102
5.43448,495450
5.44185,587037
5.44923,647929
5.45662,629711
5.46398,582028
5.47137,525331
5.47873,452249
5.48612,416580
5.4935,444990
5.50087,528441
5.50825,602924
5.51562,630962
5.523,641427
5.53037,692929
5.53775,727899
5.54513,704419
5.5525,626753
5.55988,517087
5.56725,446679
5.57463,434013
5.58202,466589
5.58938,506198
5.59677,556634
5.60413,613118
5.61152,687575
5.61888,892885
5.62627,1580134
5.63365,4016447
5.64102,7955709
5.6484,9595252
5.65577,7621006
5.66315,4312047
5.67052,2046377
5.6779,1277671
5.68528,1199033
5.69265,1323783
5.70003,1654258
5.7074,1785355
5.71478,2402142
5.72217,7488489
5.72953,18589750
5.73692,26574030
5.74428,29392980
5.75167,28537574
5.75903,24902130
5.76642,19698846
5.7738,9963921
5.78117,3177803
5.78855,1244956
5.79592,1606598
5.8033,6356753
5.81068,16744802
5.81805,23579314
5.82543,22992364
5.8328,12790396
5.84018,3700560
5.84755,1130950
5.85493,737516
5.86232,696365
5.86968,665854
5.87707,606957
5.88443,557665
5.89182,601092
5.8992,694507
5.90657,690318
5.91395,605844
5.92132,505257
5.9287,524082
5.93607,1615620
5.94345,7319026
5.95083,15870479
5.9582,19594054
5.96558,15049547
5.97295,6758353
5.98033,2210550
5.98772,1047755
5.99508,759650
6.00247,714375
6.00983,730361
6.01722,760649
6.02458,734384
6.03197,691789
6.03935,772486
6.04672,833546
6.0541,732912
6.06147,714814
6.06885,870223
6.07623,1015160
6.0836,1169424
6.09098,3553896
6.09835,13449060
6.10573,26487396
6.1131,32976474
6.12048,36335152
6.12787,38052632
6.13523,37336060
6.14262,12640082
6.14998,1555256
6.15737,997789
6.16475,889167
6.17212,809575
6.1795,868063
6.18687,1061791
6.19425,1299336
6.20162,1272672
6.209,897093
6.21638,574517
6.22375,504329
6.23113,591494
6.2385,706289
6.24588,790134
6.25327,940157
6.26063,1666559
6.26802,2430580
6.27538,1997115
6.28277,1300025
6.29013,1345329
6.29752,1973896
6.3049,2457688
6.31227,1995474
6.31965,1213968
6.32702,818031
6.3344,777001
6.34177,802236
6.34915,934154
6.35653,1208938
6.3639,1139847
6.37128,845850
6.37865,787762
6.38603,1108161
6.39342,1389167
6.40078,1413046
6.40817,2012402
6.41553,3744149
6.42292,6675407
6.43028,9157439
6.43767,15180309
6.44505,24688256
6.45242,30667010
6.4598,28491934
6.46717,10882073
6.47455,2090553
6.48193,1153204
6.4893,1246124
6.49668,1322092
6.50405,1362367
6.51143,1626301
6.5188,2123796
6.52618,2430237
6.53357,2377495
6.54093,2116678
6.54832,1885952
6.55568,1757925
6.56307,1676390
6.57045,1709927
6.57782,1584004
6.5852,1714045
6.59257,4358577
6.59995,12490412
6.60732,19046508
6.6147,16370536
6.62208,7108700
6.62945,1915109
6.63683,871834
6.6442,824760
6.65158,831362
6.65897,777829
6.66633,790886
6.67372,985165
6.68108,1187797
6.68847,1247101
6.69583,1510920
6.70322,2306517
6.7106,3018190
6.71797,3999759
6.72535,7548716
6.73272,12595808
6.7401,15852345
6.74748,20565586
6.75485,24175074
6.76223,20398586
6.7696,10093505
6.77698,5359724
6.78435,6464830
6.79173,12223270
6.79912,17705522
6.80648,19252798
6.81387,16254885
6.82123,18031398
6.82862,26236416
6.836,29331628
6.84337,20321552
6.85075,6917193
6.85812,3042406
6.8655,2416798
6.87287,3797119
6.88025,4057861
6.88763,2450435
6.895,1281807
6.90238,1373264
6.90975,3081937
6.91713,6417972
6.9245,10339337
6.93188,13902501
6.93927,13878111
6.94663,10476168
6.95402,8287552
6.96138,4578276
6.96877,1899000
6.97615,1455940
6.98352,1569727
6.9909,1517989
6.99827,1611901
7.00565,1826791
7.01302,1861630
7.0204,2247273
7.02778,6450737
7.03515,16089581
7.04253,22727730
7.0499,21726500
7.05728,19480852
7.06467,23350554
7.07203,20519056
7.07942,7347316
7.08678,2128481
7.09417,4406553
7.10153,7828457
7.10892,8262377
7.1163,7755775
7.12367,15939170
7.13105,27568340
7.13842,31588442
7.1458,22818998
7.15318,5775662
7.16055,6347084
7.16793,11759515
7.1753,11673861
7.18268,5146905
7.19005,1754561
7.19743,2465157
7.20482,4573742
7.21218,5560566
7.21957,6692573
7.22693,7942196
7.23432,5441312
7.2417,2349257
7.24907,1663101
7.25645,2234086
7.26382,3647292
7.2712,4047432
7.27857,3191247
7.28595,3419513
7.29333,4244551
7.3007,3338301
7.30808,2273063
7.31545,2937088
7.32283,3927004
7.33022,3212223
7.33758,1944280
7.34497,1890407
7.35233,4378829
7.35972,11096091
7.36708,14453547
7.37447,9037165
7.38185,3461287
7.38922,2492964
7.3966,2707683
7.40397,2936828
7.41135,2807086
7.41873,2167454
7.4261,1593527
7.43348,2187209
7.44085,2920840
7.44823,4995400
7.4556,13255315
7.46298,23628134
7.47037,27826542
7.47773,20588502
7.48512,6163668
7.49248,2053982
7.49987,5774118
7.50723,18281812
7.51462,29775046
7.522,32977002
7.52937,21255688
7.53675,3554336
7.54412,1426925
7.5515,1274612
7.55888,1294471
7.56625,1447424
7.57363,1815544
7.581,2499266
7.58838,3107583
7.59575,3163331
7.60313,2637100
7.61052,2562669
7.61788,3538972
7.62527,3699329
7.63263,2603246
7.64002,2039893
7.6474,2061262
7.65477,3180370
7.66215,6932826
7.66952,10693381
7.6769,7968326
7.68427,3523849
7.69165,2362029
7.69903,2532334
7.7064,4392182
7.71378,10443382
7.72115,21501430
7.72853,27766778
7.73592,20599388
7.74328,13044092
7.75067,13604253
7.75803,9179201
7.76542,5557681
7.77278,6895712
7.78017,5665989
7.78755,4066050
7.79492,4063154
7.8023,4638360
7.80967,4603102
7.81705,5321185
7.82443,11537232
7.8318,17646016
7.83918,21219296
7.84655,27346878
7.85393,29825078
7.8613,25740248
7.86868,17512688
7.87607,12639615
7.88343,14785043
7.89082,11631572
7.89818,6646577
7.90557,6057407
7.91295,9298832
7.92032,9193526
7.9277,6212567
7.93507,7166135
7.94245,7954313
7.94982,6250029
7.9572,8427299
7.96458,11282326
7.97195,10080158
7.97933,6881387
7.9867,5584339
7.99408,5679605
8.00147,7063746
8.00883,7155202
8.01622,3986526
8.02358,1842991
8.03097,1257869
8.03833,1260383
8.04572,2327258
8.0531,5138466
8.06047,9295018
8.06785,12867951
8.07522,11998392
8.0826,7086267
8.08997,5327651
8.09735,4751913
8.10473,3717627
8.1121,2270428
8.11948,1882322
8.12685,2103006
8.13423,1780293
8.14162,1748884
8.14898,2312634
8.15637,2817977
8.16373,4040024
8.17112,6860004
8.17848,7957132
8.18587,5807453
8.19325,6867785
8.20062,13076908
8.208,21135130
8.21537,29774772
8.22275,33116420
8.23013,33267616
8.2375,31762848
8.24488,18496970
8.25225,9416840
8.25963,4795727
8.267,3017399
8.27438,2733834
8.28177,4650085
8.28913,9107104
8.29652,14578076
8.30388,15914149
8.31127,10128783
8.31865,10324407
8.32602,16733261
8.3334,13736589
8.34077,5157671
8.34815,2229679
8.35552,2386986
8.3629,2384249
8.37028,2213130
8.37765,2742519
8.38503,3508976
8.3924,3553381
8.39978,3597788
8.40717,4004525
8.41453,7139888
8.42192,9562065
8.42928,6135120
8.43667,2470287
8.44403,1847400
8.45142,1705808
8.4588,2101134
8.46617,2863570
8.47355,2809117
8.48092,2324661
8.4883,3251499
8.49568,5273917
8.50305,5153512
8.51043,4648254
8.5178,4786751
8.52518,3434940
8.53255,2776450
8.53993,3072504
8.54732,3372450
8.55468,3881024
8.56207,5511518
8.56943,5263591
8.57682,3525496
8.5842,3149177
8.59157,3175881
8.59895,2874805
8.60632,2800710
8.6137,2394553
8.62107,1689769
8.62845,2049086
8.63583,3172493
8.6432,3181343
8.65058,2508960
8.65795,3219457
8.66533,6423537
8.6727,8656336
8.68008,7993318
8.68747,6904313
8.69483,8089631
8.70222,7485774
8.70958,5209840
8.71697,3668896
8.72435,2872279
8.73172,3546643
8.7391,4108525
8.74647,4069756
8.75385,3781813
8.76122,3071893
8.7686,3310033
8.77598,3939775
8.78335,3513474
8.79073,3499721
8.7981,3869918
8.80548,4864293
8.81287,4791744
8.82023,4293240
8.82762,6072223
8.83498,10473832
8.84237,10649266
8.84973,4986297
8.85712,3345190
8.8645,4366063
8.87187,4718220
8.87925,5253464
8.88662,5547374
8.894,3429821
8.90138,1577801
8.90875,1405797
8.91613,1869336
8.9235,2918453
8.93088,3780063
8.93825,3534772
8.94563,3542006
8.95302,3518099
8.96038,3160428
8.96777,4456625
8.97513,6308055
8.98252,5597666
8.9899,3686433
8.99727,3496885
9.00465,4103048
9.01202,3968859
9.0194,3010488
9.02677,2654299
9.03415,2954084
9.04153,2506858
9.0489,2281138
9.05628,3240350
9.06365,3815551
9.07103,2776284
9.07842,2024291
9.08578,1797549
9.09317,1438826
9.10053,1742371
9.10792,2642341
9.11528,3557227
9.12267,5212307
9.13005,7721081
9.13742,8528417
9.1448,7360922
9.15217,6418012
9.15955,5626830
9.16693,3833738
9.1743,1999994
9.18168,1757752
9.18905,2648145
9.19643,4593911
9.2038,5346769
9.21118,3108470
9.21857,1619390
9.22593,1576634
9.23332,1823088
9.24068,1875431
9.24807,2098274
9.25543,2897748
9.26282,2781112
9.2702,2326199
9.27757,3893063
9.28495,10059307
9.29232,19949886
9.2997,27711150
9.30708,26474522
9.31445,8538425
9.32183,2137451
9.3292,2083865
9.33658,2030030
9.34395,2007037
9.35133,2211795
9.35872,1800332
9.36608,1389139
9.37347,1369827
9.38083,1277735
9.38822,1100850
9.3956,1007157
9.40297,1044120
9.41035,1114378
9.41772,1357073
9.4251,1706821
9.43247,1482199
9.43985,1186282
9.44723,2796362
9.4546,9038384
9.46198,16816634
9.46935,14418379
9.47673,5377424
9.48412,2323684
9.49148,1869520
9.49887,1933800
9.50623,2676476
9.51362,2725071
9.52098,1732827
9.52837,1247178
9.53575,1606843
9.54312,2398729
9.5505,2549367
9.55787,1827250
9.56525,1421677
9.57263,1455512
9.58,1858840
9.58738,1923337
9.59475,1738124
9.60213,1668137
9.6095,2065863
9.61688,2654215
9.62427,2517197
9.63163,1876857
9.63902,1472145
9.64638,1455548
9.65377,1958142
9.66115,2156352
9.66852,1548323
9.6759,1105654
9.68327,1254346
9.69065,1414005
9.69802,1206335
9.7054,1167307
9.71278,1593074
9.72015,2151128
9.72753,1918932
9.7349,1564482
9.74228,1543483
9.74967,1521039
9.75703,1272624
9.76442,1114095
9.77178,1378223
9.77917,1792818
9.78653,2293560
9.79392,2951559
9.8013,2696044
9.80867,2133532
9.81605,1889601
9.82342,1853410
9.8308,1692275
9.83817,1332861
9.84555,1298310
9.85293,1360987
9.8603,1823613
9.86768,2213783
9.87505,2099055
9.88243,1784689
9.88982,1572870
9.89718,1687709
9.90457,1886958
9.91193,1730679
9.91932,1286521
9.92668,1016674
9.93407,967433
9.94145,1010074
9.94882,1032670
9.9562,970805
9.96357,947319
9.97095,1010142
9.97833,1158734
9.9857,1133131
9.99308,989343
10.0005,1023736
10.0078,1282531
10.0152,1420500
10.0226,1408281
10.03,1314546
10.0373,1172811
10.0447,1183521
10.0521,1536564
10.0595,1675137
10.0669,1507290
10.0742,1259443
10.0816,1200512
10.089,1344643
10.0964,2034381
10.1037,2491200
10.1111,2429886
10.1185,2276715
10.1259,1761036
10.1332,1210337
10.1406,1015919
10.148,1409675
10.1554,2968627
10.1627,3778725
10.1701,2899966
10.1775,1725363
10.1849,1695175
10.1922,2423219
10.1996,2498756
10.207,1658455
10.2144,1157432
10.2218,1117951
10.2291,1287284
10.2365,1241804
10.2439,953430
10.2513,822685
10.2586,976373
10.266,1182958
10.2734,1540167
10.2808,2872196
10.2881,5036003
10.2955,5345313
10.3029,3281687
10.3103,1494414
10.3176,1007554
10.325,1074192
10.3324,1370871
10.3398,2243760
10.3472,2487305
10.3545,1541261
10.3619,892148
10.3693,864570
10.3767,972261
10.384,965673
10.3914,900762
10.3988,852094
10.4062,896951
10.4135,1472877
10.4209,3369931
10.4283,5234643
10.4357,4586148
10.443,2549574
10.4504,2490612
10.4578,3503863
10.4652,3313460
10.4726,1882604
10.4799,1186211
10.4873,1151983
10.4947,1077948
10.5021,919112
10.5094,1017794
10.5168,1132938
10.5242,1033170
10.5316,881542
10.5389,804998
10.5463,815458
10.5537,975655
10.5611,1168916
10.5684,1384271
10.5758,1580433
10.5832,1791285
10.5906,1844821
10.5979,2443133
10.6053,2798983
10.6127,2151493
10.6201,1301194
10.6275,1157196
10.6348,1582458
10.6422,1708830
10.6496,1214850
10.657,832230
10.6643,822350
10.6717,939461
10.6791,990353
10.6865,971620
10.6938,932760
10.7012,894158
10.7086,855832
10.716,868440
10.7233,936200
10.7307,1157468
10.7381,1658186
10.7455,2057904
10.7529,1550423
10.7602,867146
10.7676,702946
10.775,851291
10.7824,987521
10.7897,868210
10.7971,708916
10.8045,753455
10.8119,918392
10.8192,978892
10.8266,925368
10.834,867220
10.8414,935902
10.8487,1033243
10.8561,874754
10.8635,703228
10.8709,788274
10.8783,919982
10.8856,945346
10.893,871064
10.9004,865436
10.9078,1017885
10.9151,1062568
10.9225,989873
10.9299,1076281
10.9373,1368899
10.9446,1701853
10.952,1911540
10.9594,1804773
10.9668,1500652
10.9741,1188644
10.9815,1109275
10.9889,1109285
10.9963,1201589
11.0036,1451164
11.011,1473559
11.0184,1226472
11.0258,1069336
11.0332,1111677
11.0405,1272649
11.0479,1302129
11.0553,1170158
11.0627,1007570
11.07,968816
11.0774,1031661
11.0848,1004477
11.0922,976128
11.0995,1109663
11.1069,1173814
11.1143,1145270
11.1217,1229080
11.129,1478124
11.1364,1863461
11.1438,1730847
11.1512,1146858
11.1586,895226
11.1659,908119
11.1733,945722
11.1807,961685
11.1881,975992
11.1954,933527
11.2028,789306
11.2102,626496
11.2176,579151
11.2249,643196
11.2323,827953
11.2397,938873
11.2471,862628
11.2544,824137
11.2618,971767
11.2692,1112620
11.2766,967664
11.284,811001
11.2913,911459
11.2987,1116528
11.3061,1203763
11.3135,1402474
11.3208,1674245
11.3282,1366763
11.3356,863480
11.343,772905
11.3503,1028359
11.3577,1567525
11.3651,1908027
11.3725,1393443
11.3798,777309
11.3872,602817
11.3946,671619
11.402,844900
11.4094,874860
11.4167,698871
11.4241,631067
11.4315,672037
11.4389,741386
11.4462,692353
11.4536,644847
11.461,630708
11.4684,584147
11.4757,540318
11.4831,578705
11.4905,893142
11.4979,1425175
11.5052,1429672
11.5126,1093576
11.52,1274271
11.5274,1364380
11.5347,833172
11.5421,483475
11.5495,420227
11.5569,418911
11.5643,423219
11.5716,431761
11.579,484048
11.5864,501728
11.5938,491307
11.6011,512886
11.6085,530078
11.6159,606893
11.6233,846213
11.6306,1080452
11.638,1140045
11.6454,1050147
11.6528,920005
11.6601,982816
11.6675,896355
11.6749,630378
11.6823,557362
11.6897,700463
11.697,774453
11.7044,635792
11.7118,491994
11.7192,492170
11.7265,533087
11.7339,551048
11.7413,625358
11.7487,798360
11.756,914569
11.7634,808444
11.7708,723634
11.7782,900676
11.7855,1035559
11.7929,911525
11.8003,827804
11.8077,1180366
11.8151,1272094
11.8224,952171
11.8298,689025
11.8372,603249
11.8446,671182
11.8519,751784
11.8593,683727
11.8667,576084
11.8741,556258
11.8814,621701
11.8888,829111
11.8962,1307482
11.9036,1422132
11.9109,926801
11.9183,700755
11.9257,755134
11.9331,757398
11.9404,650640
11.9478,635250
11.9552,774670
11.9626,878271
11.97,900164
11.9773,958891
11.9847,1066627
11.9921,970887
11.9995,730815
12.0068,645096
12.0142,705038
12.0216,753731
12.029,738778
12.0363,728603
12.0437,820565
12.0511,786075
12.0585,583670
12.0658,514204
12.0732,603355
12.0806,693573
12.088,688026
12.0954,643739
12.1027,680523
12.1101,889485
12.1175,1196701
12.1249,1142127
12.1322,902651
12.1396,910265
12.147,831219
12.1544,729371
12.1617,607832
12.1691,530609
12.1765,520704
12.1839,533814
12.1912,551251
12.1986,547238
12.206,507089
12.2134,471703
12.2208,475755
12.2281,525613
12.2355,558556
12.2429,571144
12.2503,560112
12.2576,523659
12.265,468652
12.2724,433193
12.2798,407337
12.2871,438608
12.2945,529063
12.3019,603137
12.3093,574475
12.3166,501939
12.324,449859
12.3314,436714
12.3388,438008
12.3461,473641
12.3535,599267
12.3609,663677
12.3683,544989
12.3757,452712
12.383,450775
12.3904,478737
12.3978,480065
12.4052,450013
12.4125,408339
12.4199,385758
12.4273,404381
12.4347,461483
12.442,488567
12.4494,443159
12.4568,418559
12.4642,519348
12.4715,663312
12.4789,653567
12.4863,659128
12.4937,650809
12.5011,575018
12.5084,570547
12.5158,634573
12.5232,564591
12.5306,466302
12.5379,435968
12.5453,414684
12.5527,439750
12.5601,488724
12.5674,614466
12.5748,787638
12.5822,736671
12.5896,690702
12.5969,784550
12.6043,766318
12.6117,607658
12.6191,533751
12.6265,592806
12.6338,708826
12.6412,710580
12.6486,598004
12.656,564296
12.6633,677778
12.6707,863452
12.6781,923523
12.6855,814515
12.6928,735430
12.7002,621189
12.7076,613860
12.715,676732
12.7223,644302
12.7297,589605
12.7371,574253
12.7445,598596
12.7519,683773
12.7592,797077
12.7666,811598
12.774,634297
12.7814,506722
12.7887,525523
12.7961,611539
12.8035,578449
12.8109,494341
12.8182,493813
12.8256,507496
12.833,533954
12.8404,587456
12.8477,628735
12.8551,632654
12.8625,605824
12.8699,546312
12.8772,502557
12.8846,510373
12.892,536473
12.8994,536954
12.9068,602797
12.9141,830776
12.9215,890713
12.9289,705851
12.9363,525398
12.9436,428282
12.951,408434
12.9584,432786
12.9658,485425
12.9731,551562
12.9805,606576
12.9879,633931
12.9953,669999
13.0026,612403
13.01,577685
13.0174,603653
13.0248,525741
13.0322,429058
13.0395,416496
13.0469,433585
13.0543,413598
13.0617,396994
13.069,373441
13.0764,351541
13.0838,350275
13.0912,357731
13.0985,383181
13.1059,398785
13.1133,409539
13.1207,436144
13.128,428415
13.1354,411414
13.1428,459097
13.1502,505343
13.1576,441325
13.1649,390751
13.1723,412652
13.1797,432302
13.1871,421388
13.1944,395757
13.2018,422739
13.2092,467077
13.2166,418737
13.2239,398153
13.2313,455348
13.2387,524367
13.2461,526840
13.2534,441780
13.2608,399250
13.2682,363052
13.2756,336408
13.2829,354767
13.2903,391846
13.2977,397967
13.3051,458367
13.3125,505898
13.3198,514828
13.3272,582923
13.3346,771194
13.342,849017
13.3493,645389
13.3567,426681
13.3641,369352
13.3715,348344
13.3788,328918
13.3862,315810
13.3936,332101
13.401,370726
13.4083,394461
13.4157,389015
13.4231,369727
13.4305,378706
13.4379,414393
13.4452,452118
13.4526,424725
13.46,392926
13.4674,402940
13.4747,382637
13.4821,353391
13.4895,338752
13.4969,332611
13.5042,335223
13.5116,355120
13.519,353135
13.5264,368215
13.5337,456822
13.5411,526300
13.5485,608470
13.5559,663947
13.5633,563903
13.5706,484698
13.578,474728
13.5854,484925
13.5928,498040
13.6001,459458
13.6075,441414
13.6149,465905
13.6223,464428
13.6296,484730
13.637,476868
13.6444,414448
13.6518,370990
13.6591,343815
13.6665,308159
13.6739,290391
13.6813,323248
13.6886,365574
13.696,354484
13.7034,320945
13.7108,312073
13.7182,333935
13.7255,351843
13.7329,356975
13.7403,355725
13.7477,361555
13.755,371552
13.7624,412120
13.7698,419449
13.7772,363349
13.7845,316570
13.7919,310164
13.7993,308585
13.8067,320441
13.814,351394
13.8214,352899
13.8288,320454
13.8362,288613
13.8436,294969
13.8509,337733
13.8583,351418
13.8657,330332
13.8731,344501
13.8804,381011
13.8878,376122
13.8952,335282
13.9026,304592
13.9099,302595
13.9173,293740
13.9247,323212
13.9321,410800
13.9394,464270
13.9468,442780
13.9542,374522
13.9616,357443
13.969,383875
13.9763,362167
13.9837,318353
13.9911,295769
13.9985,291870
14.0058,275361
14.0132,260275
14.0206,255555
14.028,250900
14.0353,257900
14.0427,260612
14.0501,256408
14.0575,256274
14.0648,276215
14.0722,279708
14.0796,277788
14.087,286125
14.0943,291917
14.1017,288590
14.1091,279533
14.1165,311999
14.1239,470091
14.1312,709247
14.1386,655094
14.146,412116
14.1534,289791
14.1607,354660
14.1681,602591
14.1755,801701
14.1829,631686
14.1902,395800
14.1976,328513
14.205,331122
14.2124,320167
14.2197,298359
14.2271,315540
14.2345,353485
14.2419,354833
14.2493,319922
14.2566,286927
14.264,277172
14.2714,265435
14.2788,254036
14.2861,258316
14.2935,285603
14.3009,389553
14.3083,492390
14.3156,483556
14.323,409161
14.3304,379722
14.3378,476426
14.3451,531119
14.3525,391696
14.3599,291487
14.3673,270770
14.3747,281027
14.382,296697
14.3894,286059
14.3968,272776
14.4042,267386
14.4115,263710
14.4189,275945
14.4263,281865
14.4337,271704
14.441,260361
14.4484,278941
14.4558,310956
14.4632,318120
14.4705,299833
14.4779,285783
14.4853,309058
14.4927,329657
14.5001,304014
14.5074,293125
14.5148,308244
14.5222,324426
14.5296,304117
14.5369,283456
14.5443,264169
14.5517,268601
14.5591,331178
14.5664,406342
14.5738,363870
14.5812,295799
14.5886,297593
14.5959,371027
14.6033,397699
14.6107,354368
14.6181,325968
14.6254,312724
14.6328,293654
14.6402,268889
14.6476,242769
14.655,241749
14.6623,272011
14.6697,297514
14.6771,288002
14.6845,259905
14.6918,253986
14.6992,249363
14.7066,260611
14.714,287543
14.7213,273586
14.7287,245878
14.7361,234367
14.7435,240665
14.7508,258982
14.7582,253949
14.7656,244368
14.773,233245
14.7804,231310
14.7877,234630
14.7951,238881
14.8025,253342
14.8099,316160
14.8172,399961
14.8246,384640
14.832,320134
14.8394,279745
14.8467,266500
14.8541,265163
14.8615,312264
14.8689,431696
14.8762,460016
14.8836,326463
14.891,293593
14.8984,348075
14.9058,331917
14.9131,268412
14.9205,242364
14.9279,238653
14.9353,236899
14.9426,244574
14.95,253800
14.9574,256936
14.9648,267731
14.9721,337460
14.9795,461672
14.9869,473157
14.9943,362655
15.0016,295775
15.009,313209
15.0164,385815
15.0238,389576
15.0311,314290
15.0385,256898
15.0459,254152
15.0533,295182
15.0607,302392
15.068,260880
15.0754,254044
15.0828,307739
15.0902,372875
15.0975,333532
15.1049,278630
15.1123,291475
15.1197,367258
15.127,335862
15.1344,248810
15.1418,231786
15.1492,254118
15.1565,286655
15.1639,285653
15.1713,260441
15.1787,236863
15.1861,237067
15.1934,260526
15.2008,274777
15.2082,291958
15.2156,320110
15.2229,288654
15.2303,245567
15.2377,232309
15.2451,239237
15.2524,242545
15.2598,245432
15.2672,254425
15.2746,256880
15.2819,272477
15.2893,309813
15.2967,314885
15.3041,278811
15.3115,264680
15.3188,251307
15.3262,238119
15.3336,229422
15.341,224148
15.3483,224562
15.3557,237243
15.3631,256713
15.3705,278079
15.3778,279468
15.3852,251432
15.3926,224168
15.4,222422
15.4073,225133
15.4147,232708
15.4221,238501
15.4295,241732
15.4368,252386
15.4442,279371
15.4516,326256
15.459,327354
15.4664,290351
15.4737,268001
15.4811,242497
15.4885,232571
15.4959,232298
15.5032,227887
15.5106,228670
15.518,226313
15.5254,219123
15.5327,215788
15.5401,222278
15.5475,244830
15.5549,264840
15.5622,283517
15.5696,260443
15.577,227295
15.5844,211481
15.5918,217265
15.5991,252639
15.6065,298416
15.6139,361094
15.6213,329402
15.6286,240216
15.636,215151
15.6434,222436
15.6508,236127
15.6581,273132
15.6655,255707
15.6729,231623
15.6803,229824
15.6876,234265
15.695,248826
15.7024,269374
15.7098,246032
15.7172,225491
15.7245,227505
15.7319,241488
15.7393,240976
15.7467,246649
15.754,252723
15.7614,252136
15.7688,243965
15.7762,259186
15.7835,279908
15.7909,259724
15.7983,254433
15.8057,266325
15.813,245059
15.8204,233808
15.8278,231102
15.8352,239690
15.8426,242751
15.8499,232417
15.8573,221999
15.8647,226450
15.8721,246561
15.8794,256429
15.8868,252084
15.8942,246951
15.9016,257507
15.9089,277761
15.9163,257624
15.9237,230460
15.9311,222731
15.9384,217435
15.9458,216922
15.9532,215371
15.9606,216396
15.9679,217467
15.9753,230595
15.9827,249294
15.9901,268936
15.9975,258017
16.0048,244541
16.0122,236919
16.0196,240971
16.0269,261500
16.0343,283170
16.0417,261103
16.0491,251301
16.0565,285485
16.0638,302369
16.0712,275313
16.0786,246240
16.086,228728
16.0933,221775
16.1007,225049
16.1081,226673
16.1155,223259
16.1229,218660
16.1302,210875
16.1376,211040
16.145,226009
16.1523,246858
16.1597,234495
16.1671,219053
16.1745,215352
16.1819,224737
16.1892,231058
16.1966,215253
16.204,206835
16.2114,211655
16.2187,220421
16.2261,219595
16.2335,218343
16.2409,215201
16.2482,214643
16.2556,209101
16.263,207682
16.2704,206036
16.2778,209076
16.2851,213480
16.2925,220204
16.2999,221633
16.3073,223963
16.3146,227693
16.322,222892
16.3294,215656
16.3368,215576
16.3441,203757
16.3515,203651
16.3589,205979
16.3663,205494
16.3736,200095
16.381,202642
16.3884,204658
16.3958,204933
16.4032,205026
16.4105,203138
16.4179,204040
16.4253,207996
16.4326,207876
16.44,202880
16.4474,206618
16.4548,213083
16.4622,213369
16.4695,211526
16.4769,215954
16.4843,212298
16.4917,209387
16.499,223386
16.5064,235641
16.5138,211118
16.5212,197255
16.5285,193860
16.5359,199859
16.5433,208113
16.5507,207088
16.5581,199819
16.5654,203426
16.5728,207674
16.5802,209509
16.5876,201106
16.5949,198978
16.6023,201431
16.6097,204137
16.6171,201743
16.6244,191081
16.6318,186211
16.6392,188166
16.6466,189030
16.6539,188515
16.6613,194621
16.6687,195031
16.6761,190916
16.6835,188232
16.6908,188311
16.6982,184916
16.7056,184296
16.7129,182832
16.7203,183651
16.7277,187403
16.7351,187456
16.7425,183250
16.7498,182545
16.7572,178963
16.7646,180845
16.772,180566
16.7793,175342
16.7867,174872
16.7941,174719
16.8015,178136
16.8089,174405
16.8162,174559
16.8236,173219
16.831,174565
16.8383,175913
16.8457,175957
16.8531,176303
16.8605,175803
16.8679,183170
16.8752,181568
16.8826,181793
16.89,183944
16.8974,180979
16.9047,177595
16.9121,176866
16.9195,173844
16.9269,174039
16.9342,173493
16.9416,172011
16.949,172550
16.9564,170519
16.9638,171349
16.9711,177240
16.9785,187612
16.9859,190239
16.9933,180464
17.0006,176209
17.008,175643
17.0154,172147
17.0228,175009
17.0301,177711
17.0375,176436
17.0449,175690
17.0523,172339
17.0597,171080
17.067,173635
17.0744,179573
17.0818,180640
17.0892,180106
17.0965,172048
17.1039,168642
17.1113,165687
17.1186,168177
17.126,166201
17.1334,168552
17.1408,176100
17.1482,179578
17.1555,176614
17.1629,171214
17.1703,170222
17.1777,169610
17.185,167300
17.1924,166027
17.1998,162686
17.2072,163969
17.2145,161523
17.2219,160235
17.2293,161104
17.2367,160974
17.2441,161846
17.2514,163590
17.2588,162306
17.2662,161983
17.2736,158762
17.2809,160602
17.2883,159843
17.2957,161397
17.3031,164492
17.3104,169841
17.3178,170280
17.3252,165394
17.3326,162986
17.34,164375
17.3473,163525
17.3547,160254
17.3621,157480
17.3695,159371
17.3768,158824
17.3842,158940
17.3916,155917
17.3989,159679
17.4063,158809
17.4137,158014
17.4211,158145
17.4285,156703
17.4358,157541
17.4432,157892
17.4506,156278
17.458,155713
17.4654,153266
17.4727,152434
17.4801,154226
17.4875,149588
