D:\Data GC-MS\2021\7 JULY\14-07-21\25591-21 4 GS.D 14 Jul 21  04:13 pm
Start of data points
1.29375,4760105
1.3005,4758469
1.30725,4747504
1.31398,4735177
1.32073,4712866
1.32747,4663989
1.33422,4599382
1.34095,4503084
1.3477,4371829
1.35445,4234126
1.36118,4066779
1.36793,3894530
1.37467,3696707
1.38142,3505041
1.38815,3308804
1.3949,3132410
1.40165,2959510
1.40838,2797038
1.41513,2631631
1.42187,2501885
1.42862,2374545
1.43535,2259306
1.4421,2140470
1.44883,2038878
1.45558,1923958
1.46233,1807549
1.46907,1702490
1.47582,1604453
1.48255,1512897
1.4893,1436857
1.51017,4527820
1.51753,4291036
1.52492,4072431
1.53228,3849439
1.53967,3636860
1.54705,3443473
1.55442,3244050
1.5618,3077544
1.56917,2898637
1.57655,2701843
1.58392,2554563
1.5913,2401052
1.59868,2232779
1.60605,2098570
1.61343,1962385
1.6208,1827604
1.62818,1703328
1.63555,1587816
1.64293,1480612
1.65032,1374477
1.65768,1276024
1.66507,1186963
1.67243,1109150
1.67982,1023988
1.6872,952062
1.69457,878407
1.70195,814214
1.70932,753129
1.7167,695169
1.72407,641555
1.73145,599535
1.73883,550019
1.7462,509418
1.75358,470178
1.76095,434693
1.76833,403018
1.77572,371776
1.78308,342938
1.79047,319207
1.79783,297673
1.80522,268731
1.81258,249280
1.81997,230798
1.82735,214969
1.83472,197012
1.8421,181430
1.84947,170740
1.85685,154752
1.86423,145372
1.8716,134391
1.87898,125488
1.88635,117354
1.89373,107338
1.9011,100389
1.90848,91288
1.91587,87309
1.92323,79797
1.93062,74711
1.93798,70275
1.94537,64963
1.95275,61820
1.96012,57535
1.9675,55043
1.97487,51661
1.98225,48426
1.98962,46043
1.997,43848
2.00438,39926
2.01175,38255
2.01913,36508
2.0265,35219
2.03388,33135
2.04127,31938
2.04863,30093
2.05602,29011
2.06338,27243
2.07077,27195
2.07813,26662
2.08552,24418
2.0929,23834
2.10027,23038
2.10765,22136
2.11502,21574
2.1224,21151
2.12978,20047
2.13715,19809
2.14453,19645
2.1519,19194
2.15928,18780
2.16665,17014
2.17403,17627
2.18142,17527
2.18878,16731
2.19617,16991
2.20353,16856
2.21092,16338
2.21828,16171
2.22567,16294
2.23305,15871
2.24042,15896
2.2478,16052
2.25517,16022
2.26255,14738
2.26993,15221
2.2773,14805
2.28468,15324
2.29205,14905
2.29943,14098
2.3068,15206
2.31418,15191
2.32157,14755
2.32893,14616
2.33632,14392
2.34368,14700
2.35107,14349
2.35845,14081
2.36582,14507
2.3732,14790
2.38057,14020
2.38795,13855
2.39532,14350
2.4027,14384
2.41008,13975
2.41745,13755
2.42483,13286
2.4322,13603
2.43958,13935
2.44697,13788
2.45433,13894
2.46172,13588
2.46908,14346
2.47647,14149
2.48383,13224
2.49122,13866
2.4986,13583
2.50597,14581
2.51335,13606
2.52072,14073
2.5281,13770
2.53548,13310
2.54285,13840
2.55023,14267
2.5576,14503
2.56498,14515
2.57235,14971
2.57973,14478
2.58712,14304
2.59448,14810
2.60187,14488
2.60923,13572
2.61662,13918
2.624,14676
2.63137,14629
2.63875,14301
2.64612,14216
2.6535,14314
2.66087,13973
2.66825,14726
2.67563,14464
2.683,14453
2.69038,14273
2.69775,14409
2.70513,14273
2.71252,13763
2.71988,13982
2.72727,13616
2.73463,14379
2.74202,14071
2.74938,13767
2.75677,13838
2.76415,14326
2.77152,13555
2.7789,13346
2.78627,13983
2.79365,13881
2.80102,13957
2.8084,13793
2.81578,13153
2.82315,13883
2.83053,14077
2.8379,13683
2.84528,13619
2.85267,13905
2.86003,13891
2.86742,14111
2.87478,14152
2.88217,13955
2.88953,13546
2.89692,13656
2.9043,13931
2.91167,13642
2.91905,13874
2.92642,13310
2.9338,13246
2.94118,13613
2.94855,13696
2.95593,13860
2.9633,13620
2.97068,13833
2.97805,13509
2.98543,13306
2.99282,14528
3.00018,13291
3.00757,13536
3.01493,12916
3.02232,13882
3.0297,13965
3.03707,13884
3.04445,13531
3.05182,13363
3.0592,13625
3.06657,14146
3.07395,13917
3.08133,13461
3.0887,14207
3.09608,13651
3.10345,13398
3.11083,14313
3.11822,13557
3.12558,13736
3.13297,13838
3.14033,13891
3.14772,13362
3.15508,13818
3.16247,13533
3.16985,13505
3.17722,13946
3.1846,13728
3.19197,13884
3.19935,13571
3.20673,13706
3.2141,13778
3.22148,13955
3.22885,13496
3.23623,13858
3.2436,14082
3.25098,13630
3.25837,14004
3.26573,13838
3.27312,13796
3.28048,13228
3.28787,13924
3.29525,14193
3.30262,14190
3.31,14170
3.31737,13654
3.32475,14582
3.33212,14190
3.3395,13818
3.34688,14179
3.35425,14386
3.36163,14383
3.369,14153
3.37638,14449
3.38375,13619
3.39113,13870
3.39852,13867
3.40588,13811
3.41327,13648
3.42063,13939
3.42802,14169
3.4354,13712
3.44277,13856
3.45015,13426
3.45752,14324
3.4649,14096
3.47227,14645
3.47965,14103
3.48703,13984
3.4944,13532
3.50178,14028
3.50915,13571
3.51653,13390
3.52392,14354
3.53128,14179
3.53867,13236
3.54603,13745
3.55342,14256
3.56078,14238
3.56817,14452
3.57555,13671
3.58292,14438
3.5903,14560
3.59767,14559
3.60505,13957
3.61243,14071
3.6198,14338
3.62718,14367
3.63455,14087
3.64193,14213
3.6493,14006
3.65668,14042
3.66407,13871
3.67143,13892
3.67882,14382
3.68618,14209
3.69357,14431
3.70095,14375
3.70832,14686
3.7157,14951
3.72307,14733
3.73045,13840
3.73782,14317
3.7452,14897
3.75258,14571
3.75995,14111
3.76733,13943
3.7747,14856
3.78208,14680
3.78947,14734
3.79683,14244
3.80422,14039
3.81158,14206
3.81897,15001
3.82633,14287
3.83372,14745
3.8411,14385
3.84847,13810
3.85585,13578
3.86322,13929
3.8706,14283
3.87798,14491
3.88535,14701
3.89273,14996
3.9001,14377
3.90748,14982
3.91485,15800
3.92223,14617
3.92962,14773
3.93698,13575
3.94437,14596
3.95173,14722
3.95912,14464
3.96648,14355
3.97387,14900
3.98125,14371
3.98862,14802
3.996,14045
4.00337,13889
4.01075,14118
4.01813,14290
4.0255,14146
4.03288,14247
4.04025,14540
4.04763,15143
4.055,14588
4.06238,14642
4.06977,14648
4.07713,14436
4.08452,13850
4.09188,14179
4.09927,14617
4.10665,14654
4.11402,14707
4.1214,14028
4.12877,14059
4.13615,13983
4.14352,14605
4.1509,14272
4.15828,14364
4.16565,13790
4.17303,14298
4.1804,14728
4.18778,14569
4.19517,14317
4.20253,14795
4.20992,14083
4.21728,14203
4.22467,13823
4.23203,14207
4.23942,13743
4.2468,14809
4.25417,14503
4.26155,13683
4.26892,13858
4.2763,12965
4.28368,13665
4.29105,13034
4.29843,13443
4.3058,13964
4.31318,13204
4.32055,14015
4.32793,13300
4.33532,12854
4.34268,13190
4.35007,13084
4.35743,13177
4.36482,13453
4.3722,14330
4.37957,14250
4.38695,13995
4.39432,14228
4.4017,13516
4.40907,14777
4.41645,13934
4.42383,13732
4.4312,13022
4.43858,12830
4.44595,14134
4.45333,14622
4.46072,14660
4.46808,14660
4.47547,15800
4.48283,15251
4.49022,14518
4.49758,13726
4.50497,13776
4.51235,13749
4.51972,13031
4.5271,13557
4.53447,13594
4.54185,14094
4.54922,15375
4.5566,16304
4.56398,15605
4.57135,14904
4.57873,14506
4.5861,13946
4.59348,13913
4.60087,13343
4.60823,12807
4.61562,14041
4.62298,13225
4.63037,13668
4.63773,13090
4.64512,13192
4.6525,13127
4.65987,13444
4.66725,13661
4.67462,13976
4.682,13165
4.68938,12879
4.69675,12972
4.70413,13235
4.7115,13681
4.71888,12847
4.72625,13438
4.73363,13790
4.74102,14519
4.74838,15269
4.75577,14604
4.76313,14475
4.77052,13793
4.7779,13678
4.78527,14570
4.79265,15132
4.80002,15028
4.8074,15691
4.81477,14474
4.82215,14514
4.82953,14550
4.8369,15355
4.84428,15524
4.85165,14827
4.85903,14874
4.86642,14013
4.87378,14553
4.88117,16534
4.88853,31191
4.89592,45028
4.90328,39555
4.91067,28319
4.91805,22120
4.92542,17917
4.9328,15818
4.94017,14642
4.94755,13572
4.95493,13700
4.9623,12769
4.96968,13572
4.97705,13579
4.98443,13101
4.9918,13038
4.99918,13222
5.00657,14155
5.01393,16047
5.02132,16422
5.02868,17550
5.03607,17551
5.04345,16010
5.05082,13994
5.0582,13670
5.06557,14760
5.07295,15523
5.08032,16503
5.0877,18699
5.09508,17706
5.10245,16421
5.10983,14601
5.1172,14929
5.12458,14752
5.13197,14624
5.13933,14293
5.14672,14606
5.15408,16016
5.16147,15614
5.16883,17208
5.17622,21371
5.1836,23544
5.19097,21568
5.19835,18503
5.20572,16359
5.2131,14868
5.22047,14068
5.22785,14279
5.23523,17533
5.2426,20677
5.24998,19627
5.25735,18115
5.26473,16537
5.27212,16264
5.27948,16910
5.28687,27507
5.29423,53087
5.30162,62919
5.30898,48402
5.31637,35892
5.32375,32198
5.33112,26114
5.3385,21484
5.34587,19262
5.35325,19872
5.36063,25328
5.368,37444
5.37538,39159
5.38275,29934
5.39013,23420
5.3975,20449
5.40488,20672
5.41227,20769
5.41963,20333
5.42702,18764
5.43438,20228
5.44177,20858
5.44915,20410
5.45652,18108
5.4639,17684
5.47127,19052
5.47865,17331
5.48602,15139
5.4934,14380
5.50078,13776
5.50815,14618
5.51553,15754
5.5229,21532
5.53028,28674
5.53767,36384
5.54503,33523
5.55242,25856
5.55978,20344
5.56717,18913
5.57453,18709
5.58192,21148
5.5893,28684
5.59667,28663
5.60405,27077
5.61142,44633
5.6188,65090
5.62618,47535
5.63355,34313
5.64093,39629
5.6483,61261
5.65568,87387
5.66305,77693
5.67043,51666
5.67782,40543
5.68518,35917
5.69257,30295
5.69993,24072
5.70732,19940
5.7147,18688
5.72207,29333
5.72945,64783
5.73682,86013
5.7442,61277
5.75157,36005
5.75895,25867
5.76633,22349
5.7737,20707
5.78108,21961
5.78845,21531
5.79583,24033
5.8032,28407
5.81058,26947
5.81797,24669
5.82533,26816
5.83272,28877
5.84008,32246
5.84747,31062
5.85485,28740
5.86222,27237
5.8696,26663
5.87697,23236
5.88435,19666
5.89172,17011
5.8991,18286
5.90648,24868
5.91385,38810
5.92123,44735
5.9286,41567
5.93598,35321
5.94337,35863
5.95073,33396
5.95812,33974
5.96548,36584
5.97287,34642
5.98023,27112
5.98762,21881
5.995,23872
6.00237,26057
6.00975,23672
6.01712,25857
6.0245,40445
6.03188,46626
6.03925,36957
6.04663,29258
6.054,80234
6.06138,289145
6.06875,385768
6.07613,203669
6.08352,73545
6.09088,32907
6.09827,22160
6.10563,20824
6.11302,20532
6.1204,20353
6.12777,19874
6.13515,18266
6.14252,20223
6.1499,20965
6.15727,19461
6.16465,18859
6.17203,19919
6.1794,22507
6.18678,26256
6.19415,30866
6.20153,33083
6.20892,36428
6.21628,34359
6.22367,28580
6.23103,26192
6.23842,28850
6.24578,32956
6.25317,31900
6.26055,27537
6.26792,34688
6.2753,42555
6.28267,37276
6.29005,28662
6.29743,28335
6.3048,56135
6.31218,130539
6.31955,133567
6.32693,60360
6.3343,28818
6.34168,35902
6.34907,47680
6.35643,43814
6.36382,40139
6.37118,41142
6.37857,44225
6.38593,36794
6.39332,26821
6.4007,24056
6.40807,26679
6.41545,27841
6.42282,29215
6.4302,32894
6.43758,30480
6.44495,24853
6.45233,31171
6.4597,42490
6.46708,36572
6.47445,37020
6.48183,49811
6.48922,49412
6.49658,56498
6.50397,75376
6.51133,54439
6.51872,31086
6.5261,26937
6.53347,28211
6.54085,29145
6.54822,24943
6.5556,19047
6.56297,15672
6.57035,15588
6.57773,19588
6.5851,22329
6.59248,23117
6.59985,20595
6.60723,22154
6.61462,27845
6.62198,34150
6.62937,40184
6.63673,39564
6.64412,39487
6.65148,38292
6.65887,37772
6.66625,48523
6.67362,44696
6.681,33585
6.68837,43625
6.69575,57857
6.70313,42151
6.7105,25395
6.71788,31783
6.72525,56485
6.73263,84411
6.74,73752
6.74738,37109
6.75477,25294
6.76213,23964
6.76952,26556
6.77688,47912
6.78427,68600
6.79165,47683
6.79902,31698
6.8064,30328
6.81377,37570
6.82115,39292
6.82852,42667
6.8359,44222
6.84328,41449
6.85065,60152
6.85803,58590
6.8654,35966
6.87278,31702
6.88017,31182
6.88753,24570
6.89492,19280
6.90228,17728
6.90967,20607
6.91703,22848
6.92442,24045
6.9318,25776
6.93917,32858
6.94655,32124
6.95392,25501
6.9613,25411
6.96867,37249
6.97605,41203
6.98343,29174
6.9908,22406
6.99818,22455
7.00555,25648
7.01293,26502
7.02032,26887
7.02768,30101
7.03507,41520
7.04243,51120
7.04982,42563
7.05718,32837
7.06457,26391
7.07195,28047
7.07932,30684
7.0867,26251
7.09407,25274
7.10145,24598
7.10883,26662
7.1162,28775
7.12358,28939
7.13095,22987
7.13833,20023
7.1457,22444
7.15308,31989
7.16047,86378
7.16783,191058
7.17522,142922
7.18258,51419
7.18997,29235
7.19735,26181
7.20472,27805
7.2121,35318
7.21947,42195
7.22685,39111
7.23422,28016
7.2416,22069
7.24898,21356
7.25635,26977
7.26373,26906
7.2711,20844
7.27848,20773
7.28587,22969
7.29323,25069
7.30062,28221
7.30798,29297
7.31537,27656
7.32273,25988
7.33012,26695
7.3375,26562
7.34487,31268
7.35225,26854
7.35962,23961
7.367,22980
7.37438,20488
7.38175,21119
7.38913,24619
7.3965,25815
7.40388,23346
7.41125,23630
7.41863,31092
7.42602,44355
7.43338,42520
7.44077,32441
7.44813,34500
7.45552,29360
7.4629,23078
7.47027,20289
7.47765,18201
7.48502,18424
7.4924,17316
7.49977,17058
7.50715,17743
7.51453,18653
7.5219,21388
7.52928,22285
7.53665,21210
7.54403,18192
7.5514,16475
7.55878,17439
7.56617,18848
7.57353,20142
7.58092,18393
7.58828,23591
7.59567,36681
7.60305,35797
7.61042,28561
7.6178,27609
7.62517,23212
7.63255,18747
7.63992,17650
7.6473,19027
7.65468,23245
7.66205,22783
7.66943,22045
7.6768,21580
7.68418,19474
7.69157,16265
7.69893,16191
7.70632,16451
7.71368,17651
7.72107,21062
7.72843,27820
7.73582,28960
7.7432,29201
7.75057,26992
7.75795,28193
7.76532,28351
7.7727,28754
7.78008,29359
7.78745,28758
7.79483,21785
7.8022,17849
7.80958,18740
7.81695,20069
7.82433,28481
7.83172,40654
7.83908,42960
7.84647,28647
7.85383,20971
7.86122,16106
7.8686,16263
7.87597,16595
7.88335,19425
7.89072,22283
7.8981,32942
7.90547,41677
7.91285,32048
7.92023,20429
7.9276,18996
7.93498,20014
7.94235,21207
7.94973,19830
7.95712,16891
7.96448,16680
7.97187,17028
7.97923,19297
7.98662,19082
7.99398,19102
8.00137,21534
8.00875,21393
8.01612,19090
8.0235,17309
8.03087,18751
8.03825,22162
8.04563,22539
8.053,18923
8.06038,16466
8.06775,16955
8.07513,17249
8.0825,17640
8.08988,17572
8.09727,20792
8.10463,23528
8.11202,24671
8.11938,29974
8.12677,29456
8.13413,26760
8.14152,23801
8.1489,24859
8.15627,28097
8.16365,27288
8.17102,25870
8.1784,23127
8.18578,28593
8.19315,71578
8.20053,149277
8.2079,110408
8.21528,41123
8.22265,26658
8.23003,26898
8.23742,29166
8.24478,27560
8.25217,23037
8.25953,22963
8.26692,22255
8.2743,21092
8.28167,20171
8.28905,21534
8.29642,22889
8.3038,21585
8.31117,21251
8.31855,35766
8.32593,68718
8.3333,67651
8.34068,37402
8.34805,24544
8.35543,20196
8.36282,22891
8.37018,26288
8.37757,24203
8.38493,22389
8.39232,21731
8.39968,24442
8.40707,30942
8.41445,31336
8.42182,25422
8.4292,20601
8.43657,19820
8.44395,18400
8.45133,17582
8.4587,23420
8.46608,30463
8.47345,33896
8.48083,32065
8.4882,28808
8.49558,31058
8.50297,30208
8.51033,22892
8.51772,20871
8.52508,23096
8.53247,27730
8.53985,30318
8.54722,25569
8.5546,20576
8.56197,23861
8.56935,24612
8.57672,24602
8.5841,27314
8.59148,32212
8.59885,34407
8.60623,34161
8.6136,27255
8.62098,23702
8.62837,21721
8.63573,22556
8.64312,29692
8.65048,42954
8.65787,51476
8.66523,41267
8.67262,27505
8.68,23217
8.68737,22872
8.69475,30617
8.70212,45505
8.7095,42771
8.71687,38501
8.72425,48216
8.73163,45314
8.739,36715
8.74638,42715
8.75375,40979
8.76113,41877
8.76852,55354
8.77588,58387
8.78327,43824
8.79063,35845
8.79802,32583
8.80538,34195
8.81277,41379
8.82015,63278
8.82752,83366
8.8349,56934
8.84227,38664
8.84965,33238
8.85703,31996
8.8644,33986
8.87178,39382
8.87915,49953
8.88653,83938
8.8939,123155
8.90128,131925
8.90867,79993
8.91603,40774
8.92342,35481
8.93078,39222
8.93817,42991
8.94555,49002
8.95292,45391
8.9603,40730
8.96767,37020
8.97505,34880
8.98242,32904
8.9898,34044
8.99718,34684
9.00455,31345
9.01193,31316
9.0193,33227
9.02668,41524
9.03407,49018
9.04143,47558
9.04882,46053
9.05618,44961
9.06357,37575
9.07093,34905
9.07832,38608
9.0857,43840
9.09307,47489
9.10045,52431
9.10782,56805
9.1152,55717
9.12258,51918
9.12995,58646
9.13733,59817
9.1447,60972
9.15208,71636
9.15945,165431
9.16683,379451
9.17422,368996
9.18158,147251
9.18897,71853
9.19633,61178
9.20372,52065
9.2111,43781
9.21847,44718
9.22585,52120
9.23322,53929
9.2406,49194
9.24797,55065
9.25535,56284
9.26273,66456
9.2701,75657
9.27748,66785
9.28485,62195
9.29223,60859
9.2996,53374
9.30698,53983
9.31437,66116
9.32173,89262
9.32912,95647
9.33648,61967
9.34387,42051
9.35125,40829
9.35862,48068
9.366,58459
9.37337,62259
9.38075,50820
9.38812,41664
9.3955,45012
9.40288,48031
9.41025,51126
9.41763,57270
9.425,67806
9.43238,61592
9.43977,49245
9.44713,53726
9.45452,64173
9.46188,68974
9.46927,66347
9.47663,76855
9.48402,83479
9.4914,71422
9.49877,55616
9.50615,56185
9.51352,67154
9.5209,62599
9.52828,52095
9.53565,48178
9.54303,55903
9.5504,65276
9.55778,63546
9.56515,54175
9.57253,52063
9.57992,53925
9.58728,63660
9.59467,66486
9.60203,62600
9.60942,61783
9.6168,76739
9.62417,121274
9.63155,152297
9.63892,132340
9.6463,107225
9.65367,109162
9.66105,94210
9.66843,75415
9.6758,72716
9.68318,70415
9.69055,75374
9.69793,108046
9.70532,121960
9.71268,87398
9.72007,65083
9.72743,63025
9.73482,63389
9.74218,75481
9.74957,122352
9.75695,171388
9.76432,128815
9.7717,85624
9.77907,73623
9.78645,72267
9.79383,71337
9.8012,81517
9.80858,101375
9.81595,149058
9.82333,150564
9.8307,123204
9.83808,106904
9.84547,85692
9.85283,116512
9.86022,209995
9.86758,192837
9.87497,100358
9.88235,79965
9.88972,78169
9.8971,76662
9.90447,82948
9.91185,87335
9.91922,80214
9.9266,73511
9.93398,68184
9.94135,62291
9.94873,64857
9.9561,69052
9.96348,73005
9.97085,73084
9.97823,75540
9.98562,87574
9.99298,88907
10.0004,83666
10.0077,81214
10.0151,82742
10.0225,96480
10.0299,97939
10.0373,94719
10.0446,96455
10.052,93146
10.0594,94106
10.0668,156523
10.0741,446181
10.0815,702229
10.0889,427073
10.0963,205564
10.1036,177141
10.111,134122
10.1184,105292
10.1258,93303
10.1331,80784
10.1405,96003
10.1479,138990
10.1553,153792
10.1627,134291
10.17,134120
10.1774,134767
10.1848,109859
10.1922,98514
10.1995,112101
10.2069,139403
10.2143,126715
10.2217,104686
10.229,104498
10.2364,107873
10.2438,104441
10.2512,91555
10.2585,96915
10.2659,120259
10.2733,120528
10.2807,109009
10.2881,105295
10.2954,94304
10.3028,89727
10.3102,91139
10.3176,108237
10.3249,113471
10.3323,120677
10.3397,130302
10.3471,126904
10.3544,124678
10.3618,126473
10.3692,131253
10.3766,140714
10.3839,143014
10.3913,131518
10.3987,114996
10.4061,103254
10.4134,101487
10.4208,111894
10.4282,136675
10.4356,145481
10.443,133619
10.4503,114841
10.4577,116138
10.4651,140310
10.4725,137928
10.4798,133920
10.4872,181047
10.4946,215623
10.502,225400
10.5093,198989
10.5167,170187
10.5241,202273
10.5315,229822
10.5388,184009
10.5462,169718
10.5536,207553
10.561,232279
10.5684,206907
10.5757,217434
10.5831,226359
10.5905,202973
10.5979,291571
10.6052,322845
10.6126,225526
10.62,189408
10.6274,254659
10.6347,284422
10.6421,206229
10.6495,158264
10.6569,134584
10.6642,123144
10.6716,119328
10.679,134325
10.6864,209468
10.6938,282764
10.7011,218105
10.7085,150363
10.7159,138423
10.7233,131763
10.7306,133613
10.738,150555
10.7454,158154
10.7528,145770
10.7601,151091
10.7675,177528
10.7749,178151
10.7823,168529
10.7896,168294
10.797,158146
10.8044,147515
10.8118,132677
10.8191,122691
10.8265,129412
10.8339,133817
10.8413,142140
10.8487,153488
10.856,167093
10.8634,168638
10.8708,178241
10.8782,163843
10.8855,150437
10.8929,162291
10.9003,175289
10.9077,166770
10.915,168615
10.9224,220076
10.9298,446292
10.9372,865344
10.9445,797917
10.9519,351755
10.9593,212017
10.9667,240013
10.9741,237217
10.9814,213375
10.9888,214195
10.9962,236360
11.0036,262734
11.0109,262666
11.0183,219642
11.0257,208778
11.0331,216891
11.0404,223534
11.0478,205206
11.0552,196786
11.0626,207395
11.0699,204719
11.0773,185350
11.0847,172337
11.0921,172253
11.0995,174249
11.1068,192200
11.1142,213672
11.1216,194950
11.129,163512
11.1363,154052
11.1437,153226
11.1511,161730
11.1585,187001
11.1658,208968
11.1732,203493
11.1806,186544
11.188,176889
11.1953,174163
11.2027,156973
11.2101,143776
11.2175,171251
11.2248,211556
11.2322,191033
11.2396,153863
11.247,144456
11.2544,156164
11.2617,168140
11.2691,177389
11.2765,180906
11.2839,192193
11.2912,189768
11.2986,198788
11.306,255839
11.3134,313356
11.3207,318062
11.3281,316295
11.3355,292208
11.3429,222434
11.3502,232336
11.3576,312320
11.365,330954
11.3724,244441
11.3798,194942
11.3871,186901
11.3945,202439
11.4019,260662
11.4093,351192
11.4166,307239
11.424,237937
11.4314,267808
11.4388,267393
11.4461,260202
11.4535,342197
11.4609,437495
11.4683,358772
11.4756,271340
11.483,230499
11.4904,206140
11.4978,200010
11.5052,222156
11.5125,302619
11.5199,372953
11.5273,284658
11.5347,205588
11.542,198799
11.5494,201324
11.5568,211631
11.5642,203762
11.5715,197387
11.5789,196583
11.5863,202692
11.5937,213391
11.601,214496
11.6084,199455
11.6158,192943
11.6232,194505
11.6306,200040
11.6379,204247
11.6453,212890
11.6527,225304
11.6601,228808
11.6674,231884
11.6748,234156
11.6822,224939
11.6896,207019
11.6969,192475
11.7043,209853
11.7117,223320
11.7191,229215
11.7264,242445
11.7338,244722
11.7412,428731
11.7486,880127
11.7559,880128
11.7633,444480
11.7707,264884
11.7781,230360
11.7855,208571
11.7928,251964
11.8002,339485
11.8076,400863
11.815,352157
11.8223,288673
11.8297,285774
11.8371,290732
11.8445,266576
11.8518,241014
11.8592,256675
11.8666,250434
11.874,239626
11.8813,243051
11.8887,221467
11.8961,208592
11.9035,236630
11.9109,274486
11.9182,263012
11.9256,240289
11.933,237238
11.9404,231499
11.9477,218910
11.9551,215982
11.9625,234571
11.9699,246740
11.9772,223073
11.9846,193102
11.992,190180
11.9994,205358
12.0067,211071
12.0141,240026
12.0215,243732
12.0289,203678
12.0363,181142
12.0436,176816
12.051,183245
12.0584,185003
12.0658,198184
12.0731,205737
12.0805,233374
12.0879,315422
12.0953,392343
12.1026,381644
12.11,404405
12.1174,414039
12.1248,300679
12.1321,222315
12.1395,258293
12.1469,303396
12.1543,259853
12.1616,201450
12.169,192196
12.1764,212216
12.1838,245531
12.1912,291263
12.1985,290860
12.2059,225606
12.2133,197566
12.2207,205061
12.228,234567
12.2354,288820
12.2428,352373
12.2502,356149
12.2575,333896
12.2649,269753
12.2723,220353
12.2797,205734
12.287,206081
12.2944,254771
12.3018,316452
12.3092,274883
12.3166,208391
12.3239,192772
12.3313,193894
12.3387,192116
12.3461,194371
12.3534,199358
12.3608,183879
12.3682,187134
12.3756,190155
12.3829,196293
12.3903,195278
12.3977,190883
12.4051,203855
12.4124,214873
12.4198,214189
12.4272,215092
12.4346,205460
12.442,184687
12.4493,171942
12.4567,170617
12.4641,178658
12.4715,184788
12.4788,192552
12.4862,201050
12.4936,202361
12.501,205405
12.5083,282616
12.5157,605669
12.5231,763835
12.5305,465573
12.5378,311114
12.5452,358606
12.5526,362638
12.56,295635
12.5673,263163
12.5747,270846
12.5821,238380
12.5895,224596
12.5969,247860
12.6042,244882
12.6116,226853
12.619,219602
12.6264,212831
12.6337,201187
12.6411,182535
12.6485,168315
12.6559,155799
12.6632,165182
12.6706,196847
12.678,215676
12.6854,192040
12.6927,170634
12.7001,162903
12.7075,164031
12.7149,181399
12.7223,191412
12.7296,177962
12.737,166774
12.7444,163832
12.7518,156736
12.7591,157351
12.7665,167420
12.7739,173542
12.7813,163971
12.7886,156308
12.796,147721
12.8034,145873
12.8108,156383
12.8181,169338
12.8255,209274
12.8329,275402
12.8403,283103
12.8477,240098
12.855,199037
12.8624,201138
12.8698,185084
12.8772,163909
12.8845,185974
12.8919,220878
12.8993,212501
12.9067,169841
12.914,143092
12.9214,137373
12.9288,153942
12.9362,202512
12.9435,229724
12.9509,189357
12.9583,151682
12.9657,140736
12.973,146364
12.9804,197406
12.9878,240567
12.9952,203890
13.0026,168243
13.0099,147869
13.0173,141116
13.0247,158812
13.0321,197349
13.0394,222230
13.0468,213528
13.0542,174671
13.0616,149216
13.0689,149925
13.0763,153189
13.0837,149590
13.0911,145413
13.0984,138148
13.1058,139392
13.1132,144543
13.1206,151071
13.128,149867
13.1353,144997
13.1427,138718
13.1501,133781
13.1575,133468
13.1648,132557
13.1722,129914
13.1796,128507
13.187,134739
13.1943,140002
13.2017,148632
13.2091,140981
13.2165,127202
13.2238,127466
13.2312,127353
13.2386,185603
13.246,388925
13.2534,512605
13.2607,317848
13.2681,158050
13.2755,143194
13.2829,160578
13.2902,189091
13.2976,239689
13.305,239319
13.3124,193214
13.3197,154583
13.3271,147660
13.3345,138827
13.3419,139791
13.3492,148378
13.3566,147279
13.364,126835
13.3714,125915
13.3788,131208
13.3861,133700
13.3935,125875
13.4009,119711
13.4083,114734
13.4156,108274
13.423,110902
13.4304,116983
13.4378,114071
13.4451,107272
13.4525,112322
13.4599,114169
13.4673,113913
13.4746,123720
13.482,126620
13.4894,118346
13.4968,111998
13.5041,107658
13.5115,99496
13.5189,100344
13.5263,116639
13.5337,147213
13.541,177980
13.5484,165483
13.5558,160334
13.5632,147248
13.5705,146584
13.5779,137828
13.5853,115163
13.5927,109268
13.6,128131
13.6074,134566
13.6148,115548
13.6222,98015
13.6295,97063
13.6369,101885
13.6443,122546
13.6517,137341
13.6591,125882
13.6664,104666
13.6738,99174
13.6812,96944
13.6886,122809
13.6959,139327
13.7033,124285
13.7107,108416
13.7181,103019
13.7254,102773
13.7328,103646
13.7402,107732
13.7476,128702
13.7549,141600
13.7623,127932
13.7697,125485
13.7771,118257
13.7845,102678
13.7918,99252
13.7992,101403
13.8066,102407
13.814,102151
13.8213,98170
13.8287,97763
13.8361,102095
13.8435,101218
13.8508,97629
13.8582,97872
13.8656,106476
13.873,119148
13.8803,112443
13.8877,107158
13.8951,100849
13.9025,96642
13.9098,94710
13.9172,93576
13.9246,91128
13.932,110541
13.9394,225125
13.9467,380657
13.9541,280094
13.9615,151205
13.9689,118534
13.9762,107784
13.9836,101235
13.991,100840
13.9984,102447
14.0057,104166
14.0131,114401
14.0205,115986
14.0279,107772
14.0352,100324
14.0426,94958
14.05,89804
14.0574,96036
14.0648,108558
14.0721,103146
14.0795,98018
14.0869,101087
14.0943,94450
14.1016,88502
14.109,84348
14.1164,84913
14.1238,82631
14.1311,82867
14.1385,82719
14.1459,80584
14.1533,79535
14.1606,82082
14.168,89422
14.1754,95489
14.1828,96773
14.1902,90386
14.1975,95929
14.2049,118571
14.2123,133647
14.2197,125398
14.227,120319
14.2344,114963
14.2418,105739
14.2492,105971
14.2565,96175
14.2639,90393
14.2713,104313
14.2787,105982
14.286,91123
14.2934,83012
14.3008,80427
14.3082,84490
14.3155,99197
14.3229,113461
14.3303,96341
14.3377,85896
14.3451,85217
14.3524,96024
14.3598,113300
14.3672,100910
14.3746,87898
14.3819,85127
14.3893,78991
14.3967,76198
14.4041,88342
14.4114,118596
14.4188,121073
14.4262,96572
14.4336,84997
14.4409,87155
14.4483,94609
14.4557,105468
14.4631,99285
14.4705,90866
14.4778,89393
14.4852,89780
14.4926,88763
14.5,87950
14.5073,87797
14.5147,82319
14.5221,83052
14.5295,85607
14.5368,88076
14.5442,87779
14.5516,86888
14.559,82139
14.5663,79564
14.5737,118107
14.5811,251308
14.5885,268377
14.5959,157440
14.6032,105944
14.6106,93479
14.618,94172
14.6254,92950
14.6327,93279
14.6401,93516
14.6475,94104
14.6549,92245
14.6622,92287
14.6696,91215
14.677,89269
14.6844,88976
14.6917,85147
14.6991,85720
14.7065,87936
14.7139,82978
14.7212,80867
14.7286,81768
14.736,74911
14.7434,72242
14.7508,73821
14.7581,72201
14.7655,76276
14.7729,79385
14.7803,78062
14.7876,79373
14.795,83331
14.8024,104456
14.8098,120754
14.8171,107143
14.8245,98625
14.8319,96538
14.8393,98850
14.8466,94626
14.854,85296
14.8614,82213
14.8688,90354
14.8762,90424
14.8835,90367
14.8909,88172
14.8983,83293
14.9057,89626
14.913,93218
14.9204,82077
14.9278,76637
14.9352,80424
14.9425,92588
14.9499,91962
14.9573,83299
14.9647,79397
14.972,72728
14.9794,77882
14.9868,92618
14.9942,106766
15.0016,100583
15.0089,92243
15.0163,81567
15.0237,79635
15.0311,78602
15.0384,78418
15.0458,85249
15.0532,91742
15.0606,88756
15.0679,80396
15.0753,76095
15.0827,73701
15.0901,75166
15.0974,75449
15.1048,78892
15.1122,77853
15.1196,72769
15.127,76463
15.1343,132237
15.1417,215584
15.1491,166973
15.1565,99593
15.1638,82416
15.1712,82605
15.1786,83688
15.186,86153
15.1933,82511
15.2007,77620
15.2081,79672
15.2155,79445
15.2228,79210
15.2302,76058
15.2376,72930
15.245,75039
15.2523,78395
15.2597,75884
15.2671,74126
15.2745,72314
15.2819,73518
15.2892,74364
15.2966,73253
15.304,71329
15.3114,67881
15.3187,72134
15.3261,83460
15.3335,92945
15.3409,90495
15.3482,83689
15.3556,83754
15.363,82719
15.3704,80783
15.3777,73825
15.3851,72015
15.3925,74873
15.3999,74368
15.4073,71209
15.4146,67913
15.422,70065
15.4294,75399
15.4368,74391
15.4441,68481
15.4515,70344
15.4589,75793
15.4663,76697
15.4736,71844
15.481,70722
15.4884,71388
15.4958,72624
15.5031,77156
15.5105,79145
15.5179,74257
15.5253,71793
15.5327,72745
15.54,71762
15.5474,69820
15.5548,70578
15.5622,67813
15.5695,68992
15.5769,71186
15.5843,72079
15.5917,70394
15.599,67257
15.6064,68030
15.6138,63951
15.6212,67757
15.6285,102978
15.6359,144126
15.6433,112231
15.6507,76787
15.658,68762
15.6654,70232
15.6728,73605
15.6802,74058
15.6876,71902
15.6949,68579
15.7023,65879
15.7097,63239
15.7171,65310
15.7244,64743
15.7318,63609
15.7392,61243
15.7466,60285
15.7539,59984
15.7613,60076
15.7687,61857
15.7761,63777
15.7834,64205
15.7908,64183
15.7982,71300
15.8056,73939
15.813,69992
15.8203,67545
15.8277,65289
15.8351,65182
15.8425,64791
15.8498,62328
15.8572,62762
15.8646,62891
15.872,57352
15.8793,57195
15.8867,59798
15.8941,61327
15.9015,59146
15.9088,58638
15.9162,63316
15.9236,64868
15.931,61043
15.9384,58433
15.9457,58657
15.9531,59915
15.9605,63971
15.9679,61864
15.9752,60017
15.9826,60188
15.99,58708
15.9974,60277
16.0047,61324
16.0121,60514
16.0195,55924
16.0269,54971
16.0342,54007
16.0416,58532
16.049,60665
16.0564,55979
16.0637,55227
16.0711,64615
16.0785,91295
16.0859,88991
16.0933,66027
16.1006,57808
16.108,59178
16.1154,63485
16.1228,59847
16.1301,57802
16.1375,57263
16.1449,55040
16.1522,53936
16.1596,51826
16.167,51368
16.1744,52279
16.1818,53896
16.1891,50490
16.1965,49172
16.2039,52074
16.2113,55350
16.2187,57593
16.226,58682
16.2334,59911
16.2408,59072
16.2481,57279
16.2555,53348
16.2629,53526
16.2703,53297
16.2777,52861
16.285,49783
16.2924,50564
16.2998,49632
16.3072,48356
16.3145,47845
16.3219,46832
16.3293,49158
16.3367,48315
16.344,47057
16.3514,48919
16.3588,50254
16.3662,47791
16.3736,47777
16.3809,47895
16.3883,46251
16.3957,48908
16.4031,47688
16.4104,48198
16.4178,46186
16.4252,45887
16.4326,46042
16.4399,45887
16.4473,44268
16.4547,44519
16.4621,43826
16.4694,43343
16.4768,44860
16.4842,43444
16.4916,43464
16.499,43117
16.5063,46005
16.5137,50327
16.5211,59296
16.5284,57368
16.5358,49030
16.5432,45480
16.5506,44397
16.558,44896
16.5653,45156
16.5727,42686
16.5801,42027
16.5875,41318
16.5948,40497
16.6022,40161
16.6096,39968
16.617,39118
16.6244,39611
16.6317,38992
16.6391,40236
16.6465,38842
16.6538,38888
16.6612,38832
16.6686,39120
16.676,41367
16.6834,42096
16.6907,41214
16.6981,40666
16.7055,40594
16.7129,40976
16.7202,39294
16.7276,39775
16.735,37098
16.7424,37293
16.7497,36932
16.7571,37944
16.7645,36325
16.7719,35459
16.7793,35561
16.7866,35811
16.794,35571
16.8014,36417
16.8088,36758
16.8161,38848
16.8235,37394
16.8309,37167
16.8383,36280
16.8456,36890
16.853,37475
16.8604,38438
16.8678,37723
16.8752,37915
16.8825,36261
16.8899,35466
16.8973,35481
16.9047,35343
16.912,35926
16.9194,35131
16.9268,34823
16.9341,34712
16.9415,33727
16.9489,34825
16.9563,34366
16.9637,34936
16.971,34922
16.9784,34695
16.9858,34158
16.9932,37213
17.0005,39727
17.0079,39647
17.0153,38450
17.0227,36337
17.03,35700
17.0374,33967
17.0448,34006
17.0522,34835
17.0596,34560
17.0669,33925
17.0743,32432
17.0817,32175
17.0891,33330
17.0964,32009
17.1038,32058
17.1112,32943
17.1186,32032
17.1259,32101
17.1333,32212
17.1407,31865
17.1481,31315
17.1554,32867
17.1628,32502
17.1702,33996
17.1776,33748
17.185,32256
17.1923,33087
17.1997,32498
17.2071,33074
17.2144,30822
17.2218,31758
17.2292,32828
17.2366,31534
17.244,32162
17.2513,31400
17.2587,32042
17.2661,31453
17.2735,32230
17.2809,32255
17.2882,30342
17.2956,31210
17.303,30572
17.3104,31130
17.3177,30982
17.3251,31004
17.3325,30617
17.3398,30642
17.3472,31246
17.3546,31702
17.362,30549
17.3694,30236
17.3767,29450
17.3841,30722
17.3915,29244
17.3989,29170
17.4062,29449
17.4136,29195
17.421,29492
17.4284,29282
17.4357,30661
17.4431,29351
17.4505,29172
17.4579,29378
17.4653,29009
17.4726,29650
17.48,31073
17.4874,31007
