D:\Data GC-MS\2021\6 JUNE\09-06-21\29916-21-1-YA.D 09 Jun 21  12:29 pm
Start of data points
1.29375,958020
1.3005,907810
1.30723,866770
1.31398,828368
1.32072,799847
1.32747,769751
1.3342,739074
1.34095,717058
1.34768,690692
1.35443,666161
1.36118,639937
1.36792,613046
1.37467,590037
1.3814,564829
1.38815,539147
1.39488,517029
1.40163,490249
1.40838,466374
1.41512,443618
1.42187,420516
1.4286,397483
1.43535,376163
1.44208,356415
1.44883,336931
1.45558,317670
1.46232,298339
1.46907,281484
1.4758,264480
1.48255,250146
1.48928,235460
1.51015,1097653
1.51753,1023177
1.5249,942014
1.53228,870286
1.53965,808853
1.54703,748299
1.55442,698343
1.56178,645228
1.56917,596444
1.57653,552307
1.58392,507278
1.5913,467271
1.59867,429591
1.60605,401145
1.61342,369736
1.6208,339672
1.62817,314383
1.63555,291437
1.64293,269347
1.6503,245696
1.65768,229469
1.66505,209786
1.67243,193733
1.6798,179964
1.68718,165848
1.69457,152863
1.70193,141240
1.70932,131684
1.71668,127944
1.72407,126333
1.73145,121482
1.73882,118312
1.7462,111984
1.75357,106097
1.76095,98395
1.76832,91697
1.7757,86413
1.78308,80746
1.79045,75947
1.79783,73469
1.8052,69527
1.81258,65480
1.81997,61996
1.82733,58795
1.83472,54583
1.84208,50689
1.84947,47982
1.85683,45167
1.86422,43079
1.8716,43587
1.87897,43347
1.88635,42340
1.89372,41868
1.9011,39762
1.90848,37467
1.91585,35554
1.92323,32651
1.9306,30926
1.93798,28626
1.94535,26780
1.95273,24501
1.96012,23805
1.96748,21231
1.97487,19930
1.98223,18808
1.98962,18345
1.997,17512
2.00437,16324
2.01175,17078
2.01912,17653
2.0265,17892
2.03387,18311
2.04125,18683
2.04863,19266
2.056,21728
2.06338,25522
2.07075,28596
2.07813,30407
2.08552,31357
2.09288,30789
2.10027,28875
2.10763,26659
2.11502,25349
2.12238,23908
2.12977,21783
2.13715,20983
2.14452,19304
2.1519,18883
2.15927,16347
2.16665,15474
2.17403,14156
2.1814,13916
2.18878,13652
2.19615,13115
2.20353,12536
2.2109,12496
2.21828,12162
2.22567,12418
2.23303,11238
2.24042,11733
2.24778,12315
2.25517,12667
2.26253,13752
2.26992,14368
2.2773,14363
2.28467,14245
2.29205,15131
2.29942,16264
2.3068,17427
2.31418,19766
2.32155,23729
2.32893,29183
2.3363,35057
2.34368,38822
2.35105,38593
2.35843,38192
2.36582,37576
2.37318,37310
2.38057,34332
2.38793,30756
2.39532,29709
2.4027,31217
2.41007,33963
2.41745,36837
2.42482,37259
2.4322,35403
2.43957,32114
2.44695,29620
2.45433,27034
2.4617,24017
2.46908,21716
2.47645,19087
2.48383,17568
2.49122,16588
2.49858,16065
2.50597,16463
2.51333,16527
2.52072,16602
2.52808,16814
2.53547,15943
2.54285,15734
2.55022,15871
2.5576,15922
2.56497,15262
2.57235,15038
2.57973,14457
2.5871,13855
2.59448,13008
2.60185,12638
2.60923,12227
2.6166,15190
2.62398,21811
2.63137,26530
2.63873,30404
2.64612,30292
2.65348,28734
2.66087,26506
2.66825,24221
2.67562,22067
2.683,19609
2.69037,18378
2.69775,16581
2.70512,15457
2.7125,13862
2.71988,13419
2.72725,12814
2.73463,12187
2.742,11795
2.74938,11378
2.75677,11735
2.76413,11006
2.77152,11565
2.77888,11547
2.78627,11222
2.79363,10409
2.80102,10445
2.8084,10879
2.81577,11138
2.82315,11071
2.83052,11859
2.8379,12625
2.84527,12716
2.85265,12576
2.86003,12004
2.8674,11842
2.87478,12145
2.88215,12893
2.88953,14910
2.89692,17471
2.90428,19320
2.91167,19545
2.91903,18540
2.92642,18916
2.93378,18768
2.94117,18264
2.94855,19189
2.95592,19757
2.9633,19681
2.97067,18135
2.97805,17121
2.98543,16183
2.9928,15754
3.00018,15852
3.00755,15689
3.01493,15134
3.0223,13649
3.02968,13777
3.03707,13542
3.04443,13062
3.05182,14199
3.05918,14069
3.06657,14547
3.07395,14284
3.08132,13288
3.0887,12815
3.09607,11902
3.10345,12200
3.11082,11498
3.1182,10803
3.12558,11197
3.13295,11146
3.14033,11536
3.1477,12060
3.15508,12128
3.16247,12085
3.16983,12152
3.17722,11932
3.18458,11452
3.19197,11526
3.19933,11364
3.20672,10974
3.2141,11178
3.22147,11256
3.22885,11240
3.23622,11864
3.2436,11915
3.25098,12877
3.25835,13392
3.26573,14124
3.2731,14234
3.28048,13376
3.28785,12988
3.29523,12753
3.30262,14660
3.30998,18647
3.31737,24654
3.32473,45661
3.33212,105169
3.3395,171195
3.34687,196989
3.35425,188611
3.36162,161866
3.369,130180
3.37637,102870
3.38375,82685
3.39113,69766
3.3985,61192
3.40588,54018
3.41325,45526
3.42063,38208
3.428,31491
3.43538,25530
3.44277,21288
3.45013,18604
3.45752,16030
3.46488,14915
3.47227,14066
3.47965,12978
3.48702,12688
3.4944,12844
3.50177,13412
3.50915,14111
3.51652,13343
3.5239,13808
3.53128,12690
3.53865,12834
3.54603,12217
3.5534,12366
3.56078,12342
3.56817,11257
3.57553,11544
3.58292,11366
3.59028,11622
3.59767,11681
3.60503,13324
3.61242,13074
3.6198,12740
3.62717,12804
3.63455,12303
3.64192,12794
3.6493,12578
3.65668,11894
3.66405,11888
3.67143,11610
3.6788,11837
3.68618,11823
3.69355,13475
3.70093,17278
3.70832,20949
3.71568,22058
3.72307,20519
3.73043,18405
3.73782,15711
3.7452,14943
3.75257,14118
3.75995,13163
3.76732,12412
3.7747,11409
3.78207,11267
3.78945,11467
3.79683,11027
3.8042,11865
3.81158,12747
3.81895,12503
3.82633,12582
3.83372,12050
3.84108,11451
3.84847,11882
3.85583,11133
3.86322,11142
3.87058,11125
3.87797,11321
3.88535,11682
3.89272,11739
3.9001,11367
3.90747,11521
3.91485,11441
3.92223,11895
3.9296,12349
3.93698,11536
3.94435,11385
3.95173,11462
3.9591,11929
3.96648,11999
3.97387,11547
3.98123,11290
3.98862,11141
3.99598,11742
4.00337,11461
4.01075,11229
4.01812,11344
4.0255,11307
4.03287,11388
4.04025,12214
4.04762,12522
4.055,12077
4.06238,12556
4.06975,12115
4.07713,11839
4.0845,11542
4.09188,11276
4.09925,11898
4.10663,12153
4.11402,14265
4.12138,13645
4.12877,13985
4.13613,13509
4.14352,13595
4.1509,14270
4.15827,14470
4.16565,13469
4.17302,13360
4.1804,14589
4.18777,17228
4.19515,18247
4.20253,17661
4.2099,15668
4.21728,14132
4.22465,12688
4.23203,12222
4.23942,11922
4.24678,11873
4.25417,12303
4.26153,11417
4.26892,11088
4.27628,11037
4.28367,11010
4.29105,11064
4.29842,10881
4.3058,11358
4.31317,10813
4.32055,10960
4.32793,11112
4.3353,10867
4.34268,10537
4.35005,11156
4.35743,10156
4.3648,11313
4.37218,11609
4.37957,12736
4.38693,13102
4.39432,12610
4.40168,12649
4.40907,12032
4.41645,11513
4.42382,11417
4.4312,11284
4.43857,12460
4.44595,15070
4.45332,16402
4.4607,15709
4.46808,13937
4.47545,13798
4.48283,13334
4.4902,12548
4.49758,12158
4.50497,11199
4.51233,10813
4.51972,10828
4.52708,10466
4.53447,10956
4.54183,12198
4.54922,16244
4.5566,20388
4.56397,21147
4.57135,21470
4.57872,18693
4.5861,15867
4.59348,13491
4.60085,11824
4.60823,11280
4.6156,10863
4.62298,10699
4.63035,10264
4.63773,10873
4.64512,10618
4.65248,10447
4.65987,11227
4.66723,12307
4.67462,12184
4.68198,11344
4.68937,10961
4.69675,10861
4.70412,10406
4.7115,10403
4.71887,11292
4.72625,10712
4.73363,10981
4.741,11305
4.74838,12623
4.75575,13339
4.76313,12706
4.7705,11891
4.77788,11398
4.78527,11303
4.79263,12488
4.80002,15226
4.80738,17252
4.81477,19198
4.82215,19092
4.82952,18739
4.8369,17475
4.84427,15677
4.85165,14179
4.85902,12816
4.8664,11730
4.87378,11524
4.88115,11729
4.88853,15701
4.8959,24253
4.90328,25929
4.91067,19414
4.91803,15203
4.92542,12907
4.93278,11751
4.94017,12217
4.94753,12109
4.95492,11768
4.9623,11230
4.96967,11204
4.97705,10906
4.98442,10647
4.9918,10388
4.99918,10675
5.00655,11965
5.01393,12997
5.0213,13485
5.02868,14454
5.03605,15514
5.04343,15104
5.05082,12522
5.05818,11752
5.06557,11494
5.07293,11230
5.08032,11949
5.0877,12677
5.09507,12765
5.10245,11865
5.10982,11475
5.1172,11457
5.12457,11046
5.13195,11525
5.13933,11009
5.1467,10936
5.15408,11264
5.16145,11302
5.16883,11857
5.17622,12286
5.18358,14842
5.19097,16704
5.19833,16096
5.20572,13834
5.21308,11975
5.22047,10920
5.22785,10688
5.23522,11597
5.2426,12457
5.24997,12380
5.25735,11712
5.26472,11631
5.2721,11920
5.27948,12355
5.28685,13152
5.29423,19228
5.3016,26304
5.30898,25249
5.31637,20305
5.32373,17564
5.33112,16169
5.33848,14084
5.34587,12620
5.35323,12116
5.36062,13124
5.368,15213
5.37537,16645
5.38275,15131
5.39012,13251
5.3975,12787
5.40488,12837
5.41225,13449
5.41963,13234
5.427,12285
5.43438,12752
5.44175,13083
5.44913,12857
5.45652,11875
5.46388,12281
5.47127,12375
5.47863,12221
5.48602,11465
5.4934,11094
5.50077,11005
5.50815,11077
5.51552,11511
5.5229,12442
5.53027,15495
5.53765,17299
5.54503,16583
5.5524,14954
5.55978,13255
5.56715,12962
5.57453,12579
5.58192,12796
5.58928,13928
5.59667,13907
5.60403,13057
5.61142,15570
5.61878,19595
5.62617,18331
5.63355,18237
5.64092,23156
5.6483,27923
5.65567,29390
5.66305,26196
5.67043,20250
5.6778,17802
5.68518,17769
5.69255,15021
5.69993,13797
5.7073,12316
5.71468,11880
5.72207,12810
5.72943,19541
5.73682,26109
5.74418,23364
5.75157,16453
5.75895,13813
5.76632,13258
5.7737,12603
5.78107,12345
5.78845,12950
5.79582,13131
5.8032,14982
5.81058,15612
5.81795,15710
5.82533,17239
5.8327,17824
5.84008,17789
5.84745,16329
5.85483,15213
5.86222,15738
5.86958,15991
5.87697,15732
5.88433,14550
5.89172,13074
5.8991,12464
5.90647,13041
5.91385,15387
5.92122,19269
5.9286,19040
5.93597,16960
5.94335,15520
5.95073,16192
5.9581,15666
5.96548,16414
5.97285,17297
5.98023,13994
5.98762,12319
5.99498,12841
6.00237,13677
6.00973,12827
6.01712,14132
6.02448,23209
6.03187,32821
6.03925,28525
6.04662,18264
6.054,20581
6.06137,53568
6.06875,78631
6.07613,47741
6.0835,21400
6.09088,13850
6.09825,12358
6.10563,11321
6.113,11375
6.12038,11932
6.12777,12383
6.13513,11467
6.14252,11192
6.14988,11222
6.15727,11200
6.16465,10696
6.17202,10954
6.1794,12198
6.18677,13162
6.19415,13961
6.20152,13869
6.2089,14644
6.21628,14209
6.22365,13864
6.23103,13801
6.2384,13663
6.24578,13984
6.25317,14129
6.26053,14145
6.26792,14534
6.27528,15116
6.28267,13542
6.29003,12093
6.29742,12324
6.3048,17287
6.31217,30508
6.31955,33478
6.32692,19849
6.3343,12873
6.34168,15505
6.34905,21305
6.35643,23632
6.3638,55098
6.37118,142276
6.37855,143057
6.38593,64645
6.39332,30030
6.40068,20721
6.40807,19333
6.41543,18271
6.42282,16938
6.43018,17463
6.43757,17170
6.44495,15544
6.45232,15261
6.4597,17476
6.46707,16963
6.47445,17939
6.48183,22764
6.4892,22697
6.49658,20166
6.50395,23932
6.51133,22524
6.5187,16594
6.52608,14904
6.53347,15270
6.54083,14943
6.54822,13875
6.55558,12254
6.56297,10919
6.57035,11406
6.57772,12191
6.5851,13043
6.59247,13327
6.59985,12737
6.60722,13542
6.6146,16025
6.62198,18073
6.62935,17765
6.63673,18053
6.6441,18713
6.65148,18614
6.65887,18236
6.66623,20740
6.67362,19037
6.68098,16033
6.68837,18739
6.69573,22098
6.70312,17758
6.7105,14017
6.71787,14841
6.72525,20366
6.73262,27659
6.74,25090
6.74738,16728
6.75475,12875
6.76213,12366
6.7695,14188
6.77688,19827
6.78425,26490
6.79163,21117
6.79902,15812
6.80638,17157
6.81377,23666
6.82113,26263
6.82852,21475
6.8359,18573
6.84327,17293
6.85065,22151
6.85802,23010
6.8654,17332
6.87277,16561
6.88015,17837
6.88753,14233
6.8949,12388
6.90228,12037
6.90965,12575
6.91703,14221
6.92442,14655
6.93178,15465
6.93917,16244
6.94653,16066
6.95392,13839
6.96128,13862
6.96867,17417
6.97605,18515
6.98342,16263
6.9908,14303
6.99817,13605
7.00555,15528
7.01292,16188
7.0203,16524
7.02768,17665
7.03505,20548
7.04243,24575
7.0498,22286
7.05718,19135
7.06457,16812
7.07193,17371
7.07932,18489
7.08668,16602
7.09407,15100
7.10143,14581
7.10882,16433
7.1162,17893
7.12357,18447
7.13095,16004
7.13832,13118
7.1457,13464
7.15308,16981
7.16045,43034
7.16783,98087
7.1752,88138
7.18258,35649
7.18995,19877
7.19733,17701
7.20472,17425
7.21208,20941
7.21947,24430
7.22683,23408
7.23422,17830
7.2416,15222
7.24897,15067
7.25635,15627
7.26372,15535
7.2711,13818
7.27847,14049
7.28585,15139
7.29323,16239
7.3006,18749
7.30798,20816
7.31535,18700
7.32273,17392
7.33012,17461
7.33748,18719
7.34487,21574
7.35223,20928
7.35962,17588
7.36698,16957
7.37437,15391
7.38175,15225
7.38912,17671
7.3965,18319
7.40387,17268
7.41125,18392
7.41863,23996
7.426,34951
7.43338,33101
7.44075,24659
7.44813,26178
7.4555,23428
7.46288,18104
7.47027,16178
7.47763,13999
7.48502,13963
7.49238,14032
7.49977,13552
7.50715,14216
7.51452,14979
7.5219,16456
7.52927,17839
7.53665,17528
7.54402,14905
7.5514,13193
7.55878,13393
7.56615,15891
7.57353,15336
7.5809,15153
7.58828,19395
7.59565,34609
7.60303,38030
7.61042,26687
7.61778,25433
7.62517,22334
7.63253,16769
7.63992,14789
7.6473,16011
7.65467,18540
7.66205,20070
7.66942,20774
7.6768,21680
7.68417,17681
7.69155,14496
7.69893,13772
7.7063,14566
7.71368,15123
7.72105,19712
7.72843,26969
7.73582,29239
7.74318,29556
7.75057,28656
7.75793,28866
7.76532,28634
7.77268,26887
7.78007,27132
7.78745,29708
7.79482,23380
7.8022,17935
7.80957,17357
7.81695,18642
7.82433,25365
7.8317,40157
7.83908,48791
7.84645,33612
7.85383,21583
7.8612,16384
7.86858,15006
7.87597,16528
7.88333,18206
7.89072,20452
7.89808,35783
7.90547,50459
7.91285,39444
7.92022,21694
7.9276,18611
7.93497,19775
7.94235,22027
7.94972,21282
7.9571,16861
7.96448,15368
7.97185,16859
7.97923,19352
7.9866,19987
7.99398,19425
8.00137,22830
8.00873,23383
8.01612,20993
8.02348,16760
8.03087,16813
8.03823,21216
8.04562,22786
8.053,22726
8.06037,20339
8.06775,19353
8.07512,18825
8.0825,18526
8.08988,19178
8.09725,22169
8.10463,27832
8.112,30232
8.11938,35235
8.12675,37139
8.13413,32768
8.14152,30055
8.14888,32468
8.15627,37645
8.16363,38746
8.17102,32307
8.17838,28267
8.18577,32737
8.19315,77928
8.20052,202920
8.2079,196720
8.21527,65818
8.22265,30970
8.23003,32143
8.2374,38202
8.24478,34694
8.25215,26557
8.25953,25565
8.2669,26277
8.27428,23556
8.28167,23007
8.28903,24455
8.29642,26869
8.30378,25601
8.31117,23314
8.31855,38823
8.32592,87898
8.3333,99660
8.34067,55488
8.34805,30905
8.35542,22466
8.3628,25225
8.37018,32107
8.37755,29505
8.38493,26273
8.3923,25108
8.39968,26196
8.40707,35876
8.41443,39815
8.42182,32961
8.42918,24310
8.43657,21438
8.44393,20908
8.45132,22428
8.4587,32437
8.46607,41558
8.47345,43616
8.48082,39058
8.4882,34406
8.49558,36947
8.50295,37638
8.51033,28383
8.5177,22104
8.52508,25645
8.53245,32968
8.53983,40334
8.54722,33222
8.55458,23515
8.56197,26196
8.56933,29907
8.57672,28469
8.5841,32126
8.59147,39173
8.59885,43057
8.60622,44135
8.6136,34026
8.62097,26713
8.62835,24998
8.63573,25419
8.6431,34566
8.65048,56630
8.65785,71495
8.66523,56661
8.67262,36796
8.67998,27434
8.68737,26551
8.69473,33099
8.70212,51704
8.70948,54867
8.71687,44048
8.72425,55723
8.73162,56169
8.739,48981
8.74637,50422
8.75375,49612
8.76112,44655
8.7685,60472
8.77588,70015
8.78325,52288
8.79063,39018
8.798,35252
8.80538,36807
8.81277,45117
8.82013,71142
8.82752,105165
8.83488,81418
8.84227,48997
8.84963,40065
8.85702,38837
8.8644,42809
8.87177,50477
8.87915,60117
8.88652,92548
8.8939,150045
8.90128,173247
8.90865,129888
8.91603,59423
8.9234,45413
8.93078,50259
8.93815,67262
8.94553,91231
8.95292,76031
8.96028,56290
8.96767,45512
8.97503,42896
8.98242,42520
8.9898,44075
8.99717,45621
9.00455,42317
9.01192,40209
9.0193,40070
9.02667,50154
9.03405,62242
9.04143,60553
9.0488,53109
9.05618,49137
9.06355,40877
9.07093,36603
9.07832,40371
9.08568,46489
9.09307,50154
9.10043,54459
9.10782,60821
9.11518,62762
9.12257,58014
9.12995,61800
9.13732,64052
9.1447,62993
9.15207,72035
9.15945,124570
9.16683,323606
9.1742,430357
9.18158,211950
9.18895,104525
9.19633,83775
9.2037,61093
9.21108,46855
9.21847,45350
9.22583,50538
9.23322,53924
9.24058,50664
9.24797,53469
9.25535,61620
9.26272,71247
9.2701,76242
9.27747,64696
9.28485,58378
9.29222,57406
9.2996,48098
9.30698,46232
9.31435,55737
9.32173,70133
9.3291,83221
9.33648,62199
9.34387,43572
9.35123,41448
9.35862,46887
9.36598,55432
9.37337,56612
9.38073,46051
9.38812,36083
9.3955,38983
9.40287,46345
9.41025,53978
9.41762,60534
9.425,63633
9.43237,60802
9.43975,49966
9.44713,55646
9.4545,85184
9.46188,96552
9.46925,78501
9.47663,71370
9.48402,71508
9.49138,61284
9.49877,52662
9.50613,56382
9.51352,66950
9.52088,64782
9.52827,50393
9.53565,42792
9.54302,42572
9.5504,48884
9.55777,53336
9.56515,49716
9.57253,43097
9.5799,46473
9.58728,52270
9.59465,53059
9.60203,53687
9.6094,51099
9.61678,50577
9.62417,69348
9.63153,99494
9.63892,110844
9.64628,91900
9.65367,75539
9.66105,67501
9.66842,61808
9.6758,61029
9.68317,62545
9.69055,57592
9.69792,63501
9.7053,80279
9.71268,68078
9.72005,51314
9.72743,43937
9.7348,42680
9.74218,47673
9.74957,64134
9.75693,95046
9.76432,85549
9.77168,55550
9.77907,47081
9.78643,44990
9.79382,46808
9.8012,58457
9.80857,71042
9.81595,79702
9.82332,81965
9.8307,72632
9.83808,71293
9.84545,60791
9.85283,61941
9.8602,105958
9.86758,120621
9.87495,70596
9.88233,48526
9.88972,46671
9.89708,43803
9.90447,49188
9.91183,53992
9.91922,51644
9.9266,49665
9.93397,45154
9.94135,40255
9.94872,39427
9.9561,39720
9.96347,41803
9.97085,43686
9.97823,43333
9.9856,48866
9.99298,48987
10.0004,46411
10.0077,46369
10.0151,48191
10.0225,51762
10.0299,51945
10.0372,49314
10.0446,47886
10.052,45878
10.0594,45460
10.0668,59861
10.0741,163002
10.0815,323925
10.0889,252446
10.0963,116199
10.1036,104182
10.111,90237
10.1184,62310
10.1258,47177
10.1331,42042
10.1405,48489
10.1479,63417
10.1553,65816
10.1626,60927
10.17,56378
10.1774,56572
10.1848,51367
10.1921,43426
10.1995,43147
10.2069,50983
10.2143,51602
10.2217,48129
10.229,46956
10.2364,47865
10.2438,46347
10.2512,44326
10.2585,42639
10.2659,49691
10.2733,53235
10.2807,54679
10.288,49931
10.2954,44795
10.3028,41204
10.3102,39592
10.3175,42845
10.3249,45577
10.3323,44412
10.3397,48194
10.3471,50389
10.3544,49172
10.3618,50575
10.3692,55891
10.3766,61379
10.3839,64215
10.3913,59260
10.3987,52170
10.4061,44649
10.4134,43635
10.4208,51206
10.4282,63317
10.4356,64773
10.4429,54592
10.4503,46174
10.4577,45722
10.4651,56686
10.4725,57744
10.4798,48426
10.4872,53634
10.4946,63252
10.502,67585
10.5093,65532
10.5167,61220
10.5241,64778
10.5315,70756
10.5388,61192
10.5462,56411
10.5536,75469
10.561,95621
10.5683,88319
10.5757,81597
10.5831,82273
10.5905,80251
10.5978,123762
10.6052,164833
10.6126,123440
10.62,74465
10.6274,83152
10.6347,87695
10.6421,68568
10.6495,53643
10.6569,46376
10.6642,43127
10.6716,41016
10.679,41152
10.6864,57902
10.6937,79116
10.7011,69950
10.7085,53120
10.7159,64728
10.7232,73916
10.7306,59616
10.738,53202
10.7454,54796
10.7528,50499
10.7601,50043
10.7675,58834
10.7749,61273
10.7823,59150
10.7896,65711
10.797,63896
10.8044,52915
10.8118,42990
10.8191,39440
10.8265,41230
10.8339,42349
10.8413,43475
10.8486,46468
10.856,50404
10.8634,52938
10.8708,54207
10.8782,50866
10.8855,49059
10.8929,51333
10.9003,53468
10.9077,49612
10.915,47966
10.9224,61555
10.9298,130803
10.9372,320894
10.9445,358341
10.9519,158029
10.9593,67937
10.9667,63311
10.974,66208
10.9814,63311
10.9888,59632
10.9962,61724
11.0036,65520
11.0109,71751
11.0183,67383
11.0257,59169
11.0331,57910
11.0404,58809
11.0478,56457
11.0552,52072
11.0626,55981
11.0699,58048
11.0773,55197
11.0847,50141
11.0921,49632
11.0994,49573
11.1068,54172
11.1142,59546
11.1216,56511
11.1289,47414
11.1363,46344
11.1437,46160
11.1511,47183
11.1585,49351
11.1658,52174
11.1732,51680
11.1806,49882
11.188,51082
11.1953,49313
11.2027,44249
11.2101,39048
11.2175,43694
11.2248,54683
11.2322,54696
11.2396,48829
11.247,45287
11.2543,46682
11.2617,51946
11.2691,55524
11.2765,59002
11.2839,58694
11.2912,54758
11.2986,52454
11.306,58599
11.3134,68436
11.3207,74630
11.3281,75822
11.3355,77238
11.3429,62520
11.3502,56466
11.3576,70236
11.365,87410
11.3724,80603
11.3797,58111
11.3871,47460
11.3945,51092
11.4019,60151
11.4093,79004
11.4166,85934
11.424,68067
11.4314,70849
11.4388,78998
11.4461,73055
11.4535,88670
11.4609,121743
11.4683,111589
11.4756,80694
11.483,67288
11.4904,62453
11.4978,58537
11.5051,59444
11.5125,67985
11.5199,84889
11.5273,76627
11.5346,56377
11.542,52871
11.5494,54597
11.5568,57385
11.5642,55439
11.5715,52439
11.5789,53419
11.5863,55702
11.5937,59149
11.601,60271
11.6084,54582
11.6158,50366
11.6232,51044
11.6305,53414
11.6379,54592
11.6453,54316
11.6527,53832
11.66,58185
11.6674,62312
11.6748,58443
11.6822,55305
11.6896,51577
11.6969,49086
11.7043,50348
11.7117,55016
11.7191,54750
11.7264,54473
11.7338,60491
11.7412,103792
11.7486,277682
11.7559,372973
11.7633,207725
11.7707,86567
11.7781,63840
11.7854,57995
11.7928,59139
11.8002,71351
11.8076,83402
11.815,81299
11.8223,70636
11.8297,64923
11.8371,70084
11.8445,66381
11.8518,59414
11.8592,57943
11.8666,60919
11.874,61806
11.8813,63450
11.8887,60724
11.8961,58601
11.9035,64777
11.9108,70516
11.9182,66537
11.9256,60179
11.933,60605
11.9403,65584
11.9477,63575
11.9551,58032
11.9625,58939
11.9699,60983
11.9772,56598
11.9846,52340
11.992,50870
11.9994,52155
12.0067,52878
12.0141,55175
12.0215,58289
12.0289,56267
12.0362,50516
12.0436,48739
12.051,49745
12.0584,52303
12.0657,55202
12.0731,57746
12.0805,59579
12.0879,65874
12.0953,83164
12.1026,101762
12.11,137444
12.1174,160376
12.1248,119585
12.1321,70113
12.1395,57945
12.1469,66997
12.1543,66372
12.1616,56670
12.169,53910
12.1764,58899
12.1838,62440
12.1911,69272
12.1985,71539
12.2059,60446
12.2133,53068
12.2207,53029
12.228,59976
12.2354,72100
12.2428,89157
12.2502,89735
12.2575,85459
12.2649,76931
12.2723,66546
12.2797,63246
12.287,59372
12.2944,62087
12.3018,75606
12.3092,74804
12.3165,59572
12.3239,52904
12.3313,52649
12.3387,54102
12.346,56110
12.3534,59091
12.3608,56936
12.3682,56852
12.3756,54271
12.3829,54768
12.3903,57553
12.3977,53882
12.4051,54797
12.4124,60957
12.4198,62707
12.4272,62448
12.4346,59998
12.4419,52791
12.4493,50083
12.4567,50417
12.4641,52661
12.4714,51090
12.4788,50284
12.4862,51242
12.4936,52053
12.501,54084
12.5083,72221
12.5157,183123
12.5231,315906
12.5305,243197
12.5378,146878
12.5452,196684
12.5526,205286
12.56,139645
12.5673,80842
12.5747,67069
12.5821,65780
12.5895,61954
12.5968,64620
12.6042,67906
12.6116,63521
12.619,58593
12.6264,56181
12.6337,58218
12.6411,57878
12.6485,54786
12.6559,51769
12.6632,51945
12.6706,54407
12.678,59429
12.6854,58946
12.6927,55505
12.7001,55161
12.7075,53848
12.7149,54534
12.7222,56942
12.7296,56086
12.737,57966
12.7444,59244
12.7518,57172
12.7591,53586
12.7665,53029
12.7739,52885
12.7813,50997
12.7886,51076
12.796,50542
12.8034,48969
12.8108,53650
12.8181,59192
12.8255,64302
12.8329,76935
12.8403,80669
12.8476,72129
12.855,59259
12.8624,59713
12.8698,60339
12.8771,55785
12.8845,56597
12.8919,69953
12.8993,74606
12.9067,62123
12.914,50626
12.9214,46204
12.9288,47512
12.9362,57583
12.9435,69708
12.9509,64126
12.9583,53717
12.9657,49847
12.973,50106
12.9804,55651
12.9878,69924
12.9952,69957
13.0025,60606
13.0099,54431
13.0173,50575
13.0247,53073
13.0321,64182
13.0394,71278
13.0468,68765
13.0542,61630
13.0616,52139
13.0689,53012
13.0763,56016
13.0837,55316
13.0911,52496
13.0984,50182
13.1058,49952
13.1132,50704
13.1206,51629
13.1279,53069
13.1353,54669
13.1427,52641
13.1501,50968
13.1575,49967
13.1648,47905
13.1722,49086
13.1796,50068
13.187,48433
13.1943,50589
13.2017,52107
13.2091,49488
13.2165,46527
13.2238,44092
13.2312,46263
13.2386,57750
13.246,123576
13.2533,237533
13.2607,195992
13.2681,83609
13.2755,51801
13.2828,53274
13.2902,71817
13.2976,116253
13.305,153154
13.3124,122772
13.3197,70167
13.3271,52314
13.3345,47444
13.3419,50112
13.3492,53051
13.3566,52948
13.364,48411
13.3714,44311
13.3787,47032
13.3861,47840
13.3935,47203
13.4009,45434
13.4082,44890
13.4156,43740
13.423,43907
13.4304,45590
13.4378,45335
13.4451,42663
13.4525,43450
13.4599,45098
13.4673,44732
13.4746,47135
13.482,50349
13.4894,50200
13.4968,48873
13.5041,45499
13.5115,41707
13.5189,42606
13.5263,46075
13.5336,51800
13.541,58563
13.5484,56517
13.5558,57097
13.5632,55113
13.5705,53635
13.5779,52578
13.5853,48011
13.5927,45258
13.6,49898
13.6074,52240
13.6148,45406
13.6222,42321
13.6295,40774
13.6369,41887
13.6443,46221
13.6517,50238
13.659,49281
13.6664,45036
13.6738,43233
13.6812,41336
13.6885,44170
13.6959,53431
13.7033,52883
13.7107,47813
13.7181,43506
13.7254,43980
13.7328,45603
13.7402,47581
13.7476,50094
13.7549,58255
13.7623,52981
13.7697,52446
13.7771,51274
13.7844,46033
13.7918,42452
13.7992,43287
13.8066,43294
13.8139,42754
13.8213,42319
13.8287,42318
13.8361,41467
13.8435,42914
13.8508,43756
13.8582,43469
13.8656,49382
13.873,58147
13.8803,60390
13.8877,53369
13.8951,47574
13.9025,45904
13.9098,43927
13.9172,43136
13.9246,40478
13.932,44019
13.9393,79977
13.9467,164045
13.9541,180840
13.9615,92877
13.9689,51669
13.9762,44489
13.9836,40624
13.991,41079
13.9984,42309
14.0057,44383
14.0131,46456
14.0205,50041
14.0279,48994
14.0352,44279
14.0426,42524
14.05,40856
14.0574,40995
14.0647,44223
14.0721,44180
14.0795,41462
14.0869,42781
14.0943,44574
14.1016,41331
14.109,39232
14.1164,39331
14.1238,39214
14.1311,38188
14.1385,38239
14.1459,37381
14.1533,36217
14.1606,37343
14.168,42575
14.1754,45704
14.1828,43327
14.1901,42732
14.1975,42763
14.2049,46578
14.2123,50267
14.2196,49703
14.227,47311
14.2344,46715
14.2418,45384
14.2492,41689
14.2565,40269
14.2639,39229
14.2713,42028
14.2787,43569
14.286,41429
14.2934,38830
14.3008,38739
14.3082,37941
14.3155,39786
14.3229,44140
14.3303,43576
14.3377,41118
14.345,40528
14.3524,41847
14.3598,48572
14.3672,46695
14.3746,40974
14.3819,38533
14.3893,37205
14.3967,35776
14.4041,36966
14.4114,45841
14.4188,53601
14.4262,43488
14.4336,37882
14.4409,39072
14.4483,41507
14.4557,49703
14.4631,50630
14.4704,43893
14.4778,39566
14.4852,38471
14.4926,38617
14.5,37997
14.5073,38260
14.5147,37343
14.5221,36839
14.5295,37738
14.5368,40711
14.5442,41308
14.5516,40530
14.559,38928
14.5663,36872
14.5737,51903
14.5811,118428
14.5885,165346
14.5958,96470
14.6032,48127
14.6106,40236
14.618,39889
14.6253,38542
14.6327,37059
14.6401,39563
14.6475,38865
14.6549,39398
14.6622,41221
14.6696,41090
14.677,40636
14.6844,40103
14.6917,39193
14.6991,38631
14.7065,40111
14.7139,38335
14.7212,37503
14.7286,36929
14.736,36363
14.7434,34452
14.7507,34977
14.7581,33963
14.7655,34433
14.7729,37351
14.7803,37028
14.7876,37572
14.795,36996
14.8024,42961
14.8098,49396
14.8171,46733
14.8245,41824
14.8319,41042
14.8393,39384
14.8466,40314
14.854,38683
14.8614,37723
14.8688,39165
14.8761,40202
14.8835,38221
14.8909,38343
14.8983,37555
14.9057,38324
14.913,41711
14.9204,38854
14.9278,35257
14.9352,36570
14.9425,43251
14.9499,45773
14.9573,40496
14.9647,39850
14.972,38301
14.9794,38193
14.9868,42653
14.9942,52678
15.0015,52679
15.0089,48715
15.0163,41673
15.0237,38461
15.031,36190
15.0384,37312
15.0458,39287
15.0532,43727
15.0606,42406
15.0679,37156
15.0753,35724
15.0827,35181
15.0901,37371
15.0974,38111
15.1048,38024
15.1122,38522
15.1196,35798
15.1269,36373
15.1343,65714
15.1417,136602
15.1491,115652
15.1564,56298
15.1638,39530
15.1712,37454
15.1786,37853
15.186,37679
15.1933,38251
15.2007,36379
15.2081,36691
15.2155,38132
15.2228,38736
15.2302,38725
15.2376,36625
15.245,36337
15.2523,35779
15.2597,36158
15.2671,36766
15.2745,37493
15.2818,38703
15.2892,40398
15.2966,40562
15.304,37095
15.3114,35336
15.3187,36307
15.3261,38928
15.3335,44503
15.3409,44933
15.3482,42007
15.3556,41451
15.363,42387
15.3704,40104
15.3777,37713
15.3851,35112
15.3925,37659
15.3999,38299
15.4072,36608
15.4146,36511
15.422,36107
15.4294,40170
15.4367,40621
15.4441,36188
15.4515,37099
15.4589,42972
15.4663,43326
15.4736,40774
15.481,40185
15.4884,38067
15.4958,36563
15.5031,39735
15.5105,40976
15.5179,39456
15.5253,39483
15.5326,40182
15.54,40287
15.5474,39802
15.5548,39029
15.5621,37258
15.5695,37135
15.5769,40408
15.5843,40326
15.5917,38051
15.599,36687
15.6064,37853
15.6138,37996
15.6212,36755
15.6285,57241
15.6359,111358
15.6433,99910
15.6507,51023
15.658,39526
15.6654,38474
15.6728,39646
15.6802,40630
15.6875,41298
15.6949,41245
15.7023,39132
15.7097,37806
15.7171,37818
15.7244,39028
15.7318,37361
15.7392,36199
15.7466,36790
15.7539,36628
15.7613,36437
15.7687,37222
15.7761,39981
15.7834,43132
15.7908,41259
15.7982,42135
15.8056,45003
15.8129,42441
15.8203,40578
15.8277,40010
15.8351,39034
15.8425,39777
15.8498,38803
15.8572,39221
15.8646,38920
15.872,36432
15.8793,36243
15.8867,38234
15.8941,40542
15.9015,38377
15.9088,38135
15.9162,39152
15.9236,43376
15.931,39505
15.9383,38253
15.9457,38382
15.9531,36752
15.9605,39106
15.9678,39844
15.9752,37427
15.9826,39517
15.99,38565
15.9974,38279
16.0047,38174
16.0121,37935
16.0195,35921
16.0269,35652
16.0342,37021
16.0416,37597
16.049,37912
16.0563,37929
16.0637,35367
16.0711,41307
16.0785,70909
16.0859,88185
16.0932,54779
16.1006,38230
16.108,38734
16.1154,38968
16.1228,39679
16.1301,39068
16.1375,39312
16.1449,40660
16.1522,38864
16.1596,36851
16.167,35179
16.1744,36329
16.1818,38186
16.1891,35874
16.1965,34943
16.2039,36347
16.2113,39713
16.2186,41910
16.226,42784
16.2334,42972
16.2408,43346
16.2481,40524
16.2555,39241
16.2629,37924
16.2703,37871
16.2777,37932
16.285,35312
16.2924,34865
16.2998,34596
16.3072,33616
16.3145,32894
16.3219,32787
16.3293,33360
16.3367,33982
16.344,33127
16.3514,32871
16.3588,34713
16.3662,34098
16.3735,32953
16.3809,32347
16.3883,31363
16.3957,32150
16.4031,33493
16.4104,33448
16.4178,32611
16.4252,31216
16.4325,30666
16.4399,30989
16.4473,30325
16.4547,30579
16.4621,31018
16.4694,30267
16.4768,29730
16.4842,30765
16.4916,30063
16.4989,29978
16.5063,31197
16.5137,34296
16.5211,42643
16.5284,56230
16.5358,45550
16.5432,34658
16.5506,30866
16.558,32351
16.5653,30928
16.5727,30614
16.5801,29535
16.5875,29335
16.5948,28688
16.6022,29805
16.6096,28990
16.617,28268
16.6243,28211
16.6317,27563
16.6391,27336
16.6465,27999
16.6538,26865
16.6612,27549
16.6686,27646
16.676,27908
16.6834,28388
16.6907,29975
16.6981,30014
16.7055,29045
16.7129,28413
16.7202,27452
16.7276,26449
16.735,26615
16.7424,26792
16.7497,26860
16.7571,25955
16.7645,25336
16.7719,25152
16.7792,25336
16.7866,25594
16.794,26336
16.8014,26494
16.8088,26908
16.8161,27919
16.8235,27690
16.8309,27255
16.8382,27167
16.8456,26254
16.853,26619
16.8604,26742
16.8678,27438
16.8751,27135
16.8825,25426
16.8899,25064
16.8973,23980
16.9046,24771
16.912,24879
16.9194,24163
16.9268,23363
16.9341,23325
16.9415,22904
16.9489,23890
16.9563,24126
16.9637,23914
16.971,24413
16.9784,24257
16.9858,23182
16.9932,24193
17.0005,27775
17.0079,32001
17.0153,30295
17.0227,25827
17.03,24275
17.0374,23365
17.0448,23484
17.0522,22866
17.0596,22220
17.0669,22162
17.0743,22124
17.0817,21668
17.0891,21374
17.0964,21123
17.1038,21323
17.1112,21369
17.1185,21799
17.1259,22085
17.1333,21124
17.1407,20745
17.1481,20916
17.1554,20558
17.1628,21833
17.1702,21706
17.1776,22151
17.1849,22250
17.1923,22412
17.1997,23132
17.2071,22607
17.2144,22735
17.2218,21549
17.2292,21157
17.2366,21229
17.244,20916
17.2513,20937
17.2587,20606
17.2661,20637
17.2735,20532
17.2808,20064
17.2882,20900
17.2956,20376
17.303,20229
17.3103,20293
17.3177,19972
17.3251,20110
17.3325,19885
17.3398,20492
17.3472,19256
17.3546,20361
17.362,19637
17.3694,19833
17.3767,20078
17.3841,19583
17.3915,19141
17.3988,19784
17.4062,18861
17.4136,18908
17.421,18929
17.4284,18782
17.4357,19004
17.4431,18830
17.4505,19133
17.4579,19052
17.4653,18887
17.4726,18756
17.48,19062
17.4874,20096
