D:\Data GC-MS\2021\7 JULY\05-07-21\34749-21 2 YKK.D 05 Jul 21  04:50 pm
Start of data points
1.29377,4442656
1.3005,4376403
1.30725,4346678
1.31398,4305437
1.32073,4270765
1.32748,4208666
1.33422,4132605
1.34097,4035442
1.3477,3920170
1.35445,3799951
1.36118,3649038
1.36793,3498982
1.37468,3339562
1.38142,3195294
1.38817,3039587
1.3949,2892602
1.40165,2754090
1.40838,2618732
1.41513,2503800
1.42187,2391264
1.42862,2285820
1.43537,2183777
1.4421,2097170
1.44885,2012608
1.45558,1943296
1.46233,1865451
1.46907,1780156
1.47582,1702130
1.48257,1619028
1.4893,1543716
1.51017,5114598
1.51753,4876999
1.52492,4655249
1.5323,4439637
1.53967,4211560
1.54705,4020961
1.55442,3779396
1.5618,3594956
1.56918,3417208
1.57655,3209939
1.58393,3030226
1.5913,2843611
1.59868,2673749
1.60605,2488990
1.61343,2330484
1.62082,2184608
1.62818,2024374
1.63557,1901766
1.64293,1767808
1.65032,1646479
1.6577,1531295
1.66507,1433719
1.67245,1322931
1.67982,1232477
1.6872,1136420
1.69457,1057551
1.70195,983414
1.70933,916435
1.7167,851095
1.72408,791286
1.73145,727159
1.73883,676975
1.7462,627613
1.75358,583486
1.76097,540100
1.76833,500860
1.77572,461315
1.78308,429360
1.79047,400792
1.79785,370070
1.80522,342017
1.8126,317120
1.81997,294787
1.82735,277140
1.83472,258002
1.8421,239506
1.84948,224878
1.85685,211191
1.86423,196059
1.8716,183249
1.87898,172590
1.88637,160155
1.89373,147976
1.90112,137918
1.90848,128297
1.91587,118057
1.92323,112428
1.93062,105089
1.938,98780
1.94537,92984
1.95275,88336
1.96012,83120
1.9675,75832
1.97488,73007
1.98225,68205
1.98963,65381
1.997,61392
2.00438,58133
2.01175,56610
2.01913,53637
2.02652,50862
2.03388,48542
2.04127,46807
2.04863,44027
2.05602,43740
2.0634,40818
2.07077,39934
2.07815,38440
2.08552,36924
2.0929,36531
2.10027,34707
2.10765,34429
2.11503,33086
2.1224,32470
2.12978,32155
2.13715,30395
2.14453,30946
2.15192,29102
2.15928,27793
2.16667,27230
2.17403,27693
2.18142,27576
2.18878,26819
2.19617,26523
2.20355,26330
2.21092,26404
2.2183,26510
2.22567,26366
2.23305,25506
2.24043,25701
2.2478,25950
2.25518,26514
2.26255,26467
2.26993,25519
2.2773,25953
2.28468,25235
2.29207,24620
2.29943,24129
2.30682,24349
2.31418,24321
2.32157,24839
2.32893,25342
2.33632,25128
2.3437,24945
2.35107,24575
2.35845,23836
2.36582,24685
2.3732,24676
2.38058,24663
2.38795,24281
2.39533,24584
2.4027,24327
2.41008,24012
2.41745,22904
2.42483,24002
2.43222,23561
2.43958,23880
2.44697,24273
2.45433,24026
2.46172,25009
2.4691,23786
2.47647,23341
2.48385,22963
2.49122,23684
2.4986,24902
2.50597,24864
2.51335,25365
2.52073,25110
2.5281,25484
2.53548,24459
2.54285,24995
2.55023,25175
2.55762,24879
2.56498,25247
2.57237,24091
2.57973,25407
2.58712,25237
2.59448,25923
2.60187,27062
2.60925,27593
2.61662,27781
2.624,27987
2.63137,27226
2.63875,26727
2.64613,27219
2.6535,26935
2.66088,25560
2.66825,25894
2.67563,26030
2.683,25281
2.69038,24414
2.69777,24761
2.70513,25214
2.71252,24720
2.71988,24610
2.72727,24297
2.73465,24773
2.74202,24475
2.7494,24480
2.75677,24594
2.76415,24409
2.77152,24122
2.7789,23449
2.78628,23640
2.79365,24660
2.80103,24809
2.8084,24034
2.81578,24901
2.82317,23989
2.83053,24411
2.83792,23614
2.84528,24117
2.85267,24470
2.86003,24059
2.86742,23458
2.8748,24629
2.88217,24356
2.88955,24690
2.89692,22928
2.9043,23652
2.91167,24542
2.91905,23559
2.92643,23926
2.9338,24207
2.94118,24801
2.94855,24087
2.95593,24532
2.96332,24868
2.97068,23962
2.97807,24707
2.98543,24515
2.99282,24440
3.00018,23676
3.00757,25205
3.01495,24879
3.02232,24491
3.0297,25060
3.03707,24542
3.04445,24438
3.05183,25092
3.0592,23932
3.06658,24279
3.07395,24460
3.08133,25710
3.0887,25061
3.09608,25029
3.10347,24182
3.11083,24609
3.11822,25416
3.12558,24972
3.13297,24796
3.14035,24838
3.14772,24274
3.1551,24535
3.16247,24617
3.16985,24971
3.17722,25180
3.1846,25838
3.19198,25157
3.19935,24464
3.20673,24097
3.2141,25223
3.22148,25246
3.22887,24677
3.23623,24939
3.24362,24747
3.25098,25246
3.25837,25262
3.26573,25150
3.27312,25152
3.2805,25619
3.28787,24522
3.29525,25106
3.30262,24624
3.31,25390
3.31738,25988
3.32475,26639
3.33213,26241
3.3395,27121
3.34688,27422
3.35425,27737
3.36163,27218
3.36902,26948
3.37638,25664
3.38377,25806
3.39113,25853
3.39852,26273
3.4059,26858
3.41327,26220
3.42065,25105
3.42802,25932
3.4354,25798
3.44277,24971
3.45015,26044
3.45753,26028
3.4649,25734
3.47228,26267
3.47965,25972
3.48703,26810
3.4944,25621
3.50178,26424
3.50917,25876
3.51653,24820
3.52392,26195
3.53128,27011
3.53867,26307
3.54605,26551
3.55342,26127
3.5608,26271
3.56817,27337
3.57555,26095
3.58292,27498
3.5903,27353
3.59768,27631
3.60505,27150
3.61243,27937
3.6198,26568
3.62718,26898
3.63457,26358
3.64193,27313
3.64932,26943
3.65668,26353
3.66407,26325
3.67143,26681
3.67882,26732
3.6862,29038
3.69357,31532
3.70095,35651
3.70832,34860
3.7157,33776
3.72308,32871
3.73045,31506
3.73783,31205
3.7452,30541
3.75258,30095
3.75995,28984
3.76733,28233
3.77472,29046
3.78208,27700
3.78947,28109
3.79683,26901
3.80422,28105
3.8116,27842
3.81897,27694
3.82635,27455
3.83372,27207
3.8411,27727
3.84847,26196
3.85585,27076
3.86323,26948
3.8706,28798
3.87798,29093
3.88535,30595
3.89273,30276
3.90012,31473
3.90748,31217
3.91487,30988
3.92223,29079
3.92962,28441
3.93698,29153
3.94437,27788
3.95175,27765
3.95912,28027
3.9665,27764
3.97387,28721
3.98125,27877
3.98863,27713
3.996,28621
4.00338,29784
4.01075,28240
4.01813,28674
4.0255,28350
4.03288,29372
4.04027,28048
4.04763,29455
4.05502,30325
4.06238,29586
4.06977,29046
4.07713,28601
4.08452,30045
4.0919,28570
4.09927,28650
4.10665,29524
4.11402,30318
4.1214,30004
4.12878,29145
4.13615,28536
4.14353,29102
4.1509,29415
4.15828,29026
4.16565,28318
4.17303,28262
4.18042,28357
4.18778,28879
4.19517,28412
4.20253,28366
4.20992,27576
4.2173,28221
4.22467,27575
4.23205,27884
4.23942,27324
4.2468,27279
4.25417,27658
4.26155,28035
4.26893,27382
4.2763,26416
4.28368,26729
4.29105,26485
4.29843,26765
4.30582,26814
4.31318,27087
4.32057,26693
4.32793,25678
4.33532,25732
4.34268,26951
4.35007,25586
4.35745,26214
4.36482,26428
4.3722,25666
4.37957,25441
4.38695,25411
4.39433,25816
4.4017,26040
4.40908,26085
4.41645,25579
4.42383,25452
4.4312,25988
4.43858,25727
4.44597,25667
4.45333,25967
4.46072,26428
4.46808,25798
4.47547,25703
4.48285,26316
4.49022,25397
4.4976,25499
4.50497,25323
4.51235,24044
4.51972,25420
4.5271,25081
4.53448,25344
4.54185,25394
4.54923,26169
4.5566,25487
4.56398,25654
4.57137,25135
4.57873,24177
4.58612,24989
4.59348,24798
4.60087,24869
4.60823,24437
4.61562,24673
4.623,25097
4.63037,25582
4.63775,25002
4.64512,24470
4.6525,24251
4.65988,25253
4.66725,25061
4.67463,25016
4.682,24570
4.68938,25127
4.69675,24742
4.70413,24146
4.71152,24529
4.71888,24219
4.72627,24377
4.73363,24740
4.74102,24635
4.74838,25087
4.75577,24968
4.76315,25841
4.77052,25675
4.7779,24919
4.78527,24868
4.79265,24873
4.80003,26204
4.8074,24859
4.81478,24303
4.82215,24181
4.82953,26062
4.8369,25582
4.84428,25980
4.85167,25742
4.85903,24457
4.86642,24988
4.87378,25062
4.88117,24982
4.88855,25703
4.89592,27169
4.9033,26979
4.91067,26495
4.91805,27269
4.92542,26051
4.9328,25937
4.94018,24696
4.94755,25083
4.95493,24325
4.9623,24213
4.96968,24096
4.97707,24634
4.98443,24718
4.99182,24384
4.99918,24223
5.00657,24644
5.01393,25065
5.02132,24792
5.0287,24906
5.03607,25540
5.04345,24886
5.05082,24942
5.0582,25719
5.06558,24631
5.07295,24901
5.08033,24476
5.0877,24575
5.09508,24437
5.10245,24477
5.10983,24438
5.11722,25105
5.12458,23832
5.13197,25500
5.13933,24319
5.14672,24537
5.1541,24343
5.16147,24116
5.16885,25142
5.17622,25005
5.1836,25610
5.19097,25356
5.19835,24905
5.20573,24364
5.2131,24251
5.22048,24533
5.22785,25296
5.23523,24966
5.24262,25707
5.24998,25238
5.25737,24682
5.26473,24716
5.27212,25400
5.27948,24777
5.28687,25921
5.29425,26987
5.30162,28923
5.309,27884
5.31637,26725
5.32375,26156
5.33112,26063
5.3385,26340
5.34588,26065
5.35325,25102
5.36063,25670
5.368,26013
5.37538,26903
5.38277,25789
5.39013,26204
5.39752,25746
5.40488,26008
5.41227,25860
5.41963,25628
5.42702,25492
5.4344,25407
5.44177,25750
5.44915,25519
5.45652,25113
5.4639,25315
5.47128,25772
5.47865,24582
5.48603,24940
5.4934,25155
5.50078,25072
5.50815,26037
5.51553,26039
5.52292,26611
5.53028,27009
5.53767,27666
5.54503,26921
5.55242,27230
5.5598,25899
5.56717,26208
5.57455,25941
5.58192,26121
5.5893,26259
5.59667,27237
5.60405,25985
5.61143,28009
5.6188,29885
5.62618,30060
5.63355,27816
5.64093,28075
5.64832,29594
5.65568,33956
5.66307,33674
5.67043,30580
5.67782,28295
5.68518,28546
5.69257,27749
5.69995,27364
5.70732,26023
5.7147,26237
5.72207,27405
5.72945,30735
5.73683,34830
5.7442,32184
5.75158,29083
5.75895,27161
5.76633,26281
5.7737,26407
5.78108,25863
5.78847,25669
5.79583,27080
5.80322,27160
5.81058,27607
5.81797,29387
5.82535,30763
5.83272,29947
5.8401,29532
5.84747,28319
5.85485,28395
5.86222,28498
5.8696,28779
5.87698,27954
5.88435,27336
5.89173,25570
5.8991,25277
5.90648,25616
5.91385,27470
5.92123,28896
5.92862,28605
5.93598,27078
5.94337,26652
5.95073,27410
5.95812,27459
5.9655,26485
5.97287,25734
5.98025,24806
5.98762,23277
5.995,24896
6.00237,25379
6.00975,24455
6.01713,24197
6.0245,27257
6.03188,29451
6.03925,27567
6.04663,25306
6.05402,40102
6.06138,103549
6.06877,145149
6.07613,88548
6.08352,43701
6.09088,29710
6.09827,25635
6.10565,25268
6.11302,23832
6.1204,23745
6.12777,24113
6.13515,22578
6.14253,23358
6.1499,24144
6.15728,23892
6.16465,22948
6.17203,23575
6.1794,24058
6.18678,25997
6.19417,27567
6.20153,28281
6.20892,29030
6.21628,30818
6.22367,27472
6.23105,26271
6.23842,27467
6.2458,31159
6.25317,29835
6.26055,28301
6.26792,32196
6.2753,37536
6.28268,33639
6.29005,28153
6.29743,28430
6.3048,47506
6.31218,98202
6.31957,102646
6.32693,57235
6.33432,30319
6.34168,27498
6.34907,31702
6.35643,33473
6.36382,36575
6.3712,39855
6.37857,43747
6.38595,41108
6.39332,33202
6.4007,28848
6.40808,28912
6.41545,30742
6.42283,32216
6.4302,34770
6.43758,33253
6.44495,29709
6.45233,41942
6.45972,56624
6.46708,50843
6.47447,43780
6.48183,53252
6.48922,50975
6.49658,60817
6.50397,80302
6.51135,66434
6.51872,41257
6.5261,35999
6.53347,38319
6.54085,39069
6.54823,37869
6.5556,28961
6.56298,26321
6.57035,27166
6.57773,30238
6.5851,34834
6.59248,38382
6.59987,34601
6.60723,34299
6.61462,38839
6.62198,47558
6.62937,57703
6.63675,56195
6.64412,54893
6.6515,52774
6.65887,48187
6.66625,59321
6.67362,63794
6.681,57646
6.68838,82893
6.69575,128734
6.70313,96210
6.7105,49208
6.71788,40895
6.72527,67576
6.73263,136202
6.74002,144383
6.74738,76079
6.75477,39396
6.76213,38168
6.76952,52460
6.7769,117882
6.78427,208868
6.79165,152270
6.79902,81472
6.8064,66792
6.81378,67610
6.82115,68675
6.82853,65326
6.8359,59601
6.84328,83001
6.85065,183799
6.85803,187728
6.86542,97912
6.87278,77237
6.88017,76651
6.88753,58159
6.89492,42980
6.9023,39671
6.90967,46412
6.91705,56054
6.92442,57542
6.9318,59350
6.93917,64543
6.94655,58158
6.95393,52344
6.9613,59475
6.96868,76649
6.97605,81259
6.98343,64491
6.99082,54280
6.99818,56306
7.00557,68495
7.01293,71949
7.02032,70635
7.02768,74131
7.03507,104295
7.04245,139870
7.04982,129430
7.0572,113949
7.06457,89311
7.07195,87305
7.07932,99001
7.0867,93393
7.09408,88631
7.10145,84215
7.10883,95897
7.1162,121921
7.12358,121995
7.13097,88614
7.13833,70106
7.14572,77230
7.15308,138749
7.16047,607731
7.16783,1650329
7.17522,1578969
7.1826,490821
7.18997,143700
7.19735,115232
7.20472,113017
7.2121,147978
7.21948,191431
7.22685,192777
7.23423,128455
7.2416,93982
7.24898,89359
7.25635,100055
7.26373,97047
7.27112,79726
7.27848,89105
7.28587,122509
7.29323,134072
7.30062,147067
7.308,156085
7.31537,135183
7.32275,147589
7.33012,185032
7.3375,210138
7.34487,268058
7.35225,216327
7.35963,130203
7.367,108751
7.37438,94172
7.38175,103593
7.38913,150887
7.39652,160450
7.40388,156637
7.41127,181807
7.41863,209095
7.42602,294643
7.43338,271511
7.44077,253164
7.44815,376835
7.45552,326608
7.4629,195551
7.47027,144489
7.47765,104128
7.48503,92688
7.4924,98699
7.49978,101660
7.50715,110947
7.51453,118561
7.5219,154339
7.52928,208527
7.53667,189567
7.54403,135605
7.55142,98691
7.55878,103130
7.56617,131241
7.57355,134216
7.58092,115825
7.5883,182276
7.59567,375004
7.60305,409419
7.61042,315200
7.6178,322528
7.62518,250482
7.63255,156618
7.63993,128923
7.6473,135950
7.65468,165114
7.66205,184415
7.66943,199710
7.67682,228629
7.68418,166093
7.69157,117979
7.69893,118839
7.70632,129618
7.7137,141865
7.72107,251887
7.72845,419030
7.73582,452280
7.7432,449250
7.75057,351791
7.75795,299255
7.76533,294970
7.7727,313487
7.78008,365446
7.78745,463742
7.79483,301859
7.80222,178615
7.80958,168615
7.81697,197309
7.82433,330777
7.83172,625038
7.83908,817230
7.84647,511022
7.85385,255789
7.86122,155502
7.8686,124542
7.87597,150199
7.88335,182011
7.89073,217923
7.8981,429285
7.90548,728122
7.91285,533425
7.92023,235587
7.9276,190346
7.93498,215598
7.94237,246234
7.94973,223653
7.95712,156980
7.96448,148460
7.97187,175673
7.97925,217926
7.98662,207680
7.994,206895
8.00137,259515
8.00875,260649
8.01612,216649
8.0235,170786
8.03088,198060
8.03825,283199
8.04563,287598
8.053,217861
8.06038,182905
8.06777,179803
8.07513,181371
8.08252,169555
8.08988,179708
8.09727,242448
8.10463,330520
8.11202,351901
8.1194,427465
8.12677,457262
8.13415,375095
8.14152,314935
8.1489,355243
8.15628,422525
8.16365,433437
8.17103,345190
8.1784,289401
8.18578,387756
8.19315,1113063
8.20053,3114989
8.20792,3556172
8.21528,1298442
8.22267,393730
8.23003,376104
8.23742,434409
8.24478,373239
8.25217,260736
8.25955,268000
8.26692,276381
8.2743,242491
8.28167,234864
8.28905,261554
8.29643,293887
8.3038,273644
8.31118,242515
8.31855,520254
8.32593,1302341
8.3333,1545665
8.34068,758667
8.34807,348330
8.35543,241499
8.36282,270118
8.37018,363948
8.37757,329348
8.38495,283348
8.39232,257554
8.3997,290408
8.40707,411719
8.41445,455594
8.42182,368337
8.4292,253174
8.43658,222109
8.44395,199835
8.45133,188733
8.4587,281699
8.46608,415505
8.47347,514971
8.48083,460818
8.48822,373796
8.49558,437437
8.50297,490973
8.51033,318909
8.51772,217485
8.5251,240727
8.53247,315565
8.53985,400492
8.54722,327317
8.5546,224053
8.56198,257726
8.56935,308379
8.57673,294933
8.5841,340091
8.59148,408046
8.59885,441419
8.60623,442789
8.61362,344980
8.62098,267064
8.62837,249542
8.63573,237273
8.64312,361937
8.6505,619374
8.65787,815819
8.66525,629564
8.67262,356480
8.68,251735
8.68737,242560
8.69475,323635
8.70213,559521
8.7095,591766
8.71688,452682
8.72425,579477
8.73163,600131
8.73902,498950
8.74638,548113
8.75377,541044
8.76113,465640
8.76852,586694
8.77588,738451
8.78327,565395
8.79065,402139
8.79802,360296
8.8054,367303
8.81277,446629
8.82015,717659
8.82752,1049569
8.8349,831975
8.84228,458134
8.84965,349795
8.85703,342209
8.8644,385102
8.87178,473034
8.87917,561416
8.88653,885403
8.89392,1459184
8.90128,1882182
8.90867,1481001
8.91603,586857
8.92342,363481
8.9308,413795
8.93817,550966
8.94555,733053
8.95292,622641
8.9603,454797
8.96768,389658
8.97505,348139
8.98243,342368
8.9898,354400
8.99718,371356
9.00455,342100
9.01193,304917
9.01932,328249
9.02668,421521
9.03407,576438
9.04143,541239
9.04882,440449
9.0562,399364
9.06357,313852
9.07095,268613
9.07832,292949
9.0857,355615
9.09307,398172
9.10045,448544
9.10783,504076
9.1152,489019
9.12258,449705
9.12995,496669
9.13733,512178
9.14472,526084
9.15208,624126
9.15947,1094011
9.16683,3149040
9.17422,5007482
9.18158,3153503
9.18897,1002107
9.19635,660215
9.20372,503282
9.2111,404738
9.21847,384820
9.22585,436357
9.23323,498835
9.2406,448405
9.24798,465739
9.25535,523281
9.26273,585852
9.2701,684827
9.27748,587446
9.28487,506900
9.29223,516593
9.29962,443612
9.30698,418204
9.31437,524717
9.32175,754383
9.32912,953745
9.3365,655379
9.34387,349746
9.35125,311694
9.35862,375916
9.366,479611
9.37338,516754
9.38075,405691
9.38813,313668
9.3955,335657
9.40288,387812
9.41027,420787
9.41763,475520
9.42502,547834
9.43238,526092
9.43977,415406
9.44713,424184
9.45452,606527
9.4619,654607
9.46927,575724
9.47665,583569
9.48402,644309
9.4914,577219
9.49877,443539
9.50615,434863
9.51353,541221
9.5209,524123
9.52828,400387
9.53565,353905
9.54303,375090
9.55042,433113
9.55778,457500
9.56517,402369
9.57253,368544
9.57992,395505
9.58728,463566
9.59467,493653
9.60205,475674
9.60942,455741
9.6168,482956
9.62417,747426
9.63155,1068843
9.63893,1111645
9.6463,825063
9.65368,732070
9.66105,648544
9.66843,558489
9.6758,528804
9.68318,521379
9.69057,517754
9.69793,660936
9.70532,882982
9.71268,686463
9.72007,462647
9.72745,400257
9.73482,392580
9.7422,457909
9.74957,751702
9.75695,1160716
9.76432,978157
9.7717,573441
9.77908,465733
9.78645,441128
9.79383,431715
9.8012,503608
9.80858,603832
9.81597,834113
9.82333,1014660
9.83072,835767
9.83808,747498
9.84547,599720
9.85283,683803
9.86022,1508389
9.8676,1882837
9.87497,992650
9.88235,476540
9.88972,423403
9.8971,425224
9.90448,490747
9.91185,530150
9.91923,493681
9.9266,450842
9.93398,413904
9.94135,370682
9.94873,348497
9.95612,367340
9.96348,405143
9.97087,423893
9.97823,420385
9.98562,478255
9.993,501347
10.0004,448358
10.0078,422850
10.0151,459364
10.0225,522618
10.0299,590896
10.0373,555043
10.0446,530147
10.052,498380
10.0594,489082
10.0668,612145
10.0741,1769972
10.0815,4086402
10.0889,4586785
10.0963,2047152
10.1036,1191829
10.111,920079
10.1184,604323
10.1258,486966
10.1332,434441
10.1405,463205
10.1479,632206
10.1553,724775
10.1627,641332
10.17,582837
10.1774,600833
10.1848,548038
10.1922,452931
10.1995,480227
10.2069,567047
10.2143,584277
10.2217,498155
10.229,492578
10.2364,501123
10.2438,486664
10.2512,432939
10.2585,421707
10.2659,500379
10.2733,540291
10.2807,516877
10.2881,474586
10.2954,435708
10.3028,404437
10.3102,400283
10.3176,429660
10.3249,472951
10.3323,473628
10.3397,500419
10.3471,546459
10.3544,545132
10.3618,572661
10.3692,616966
10.3766,640119
10.3839,615182
10.3913,565281
10.3987,517140
10.4061,468345
10.4135,445057
10.4208,490153
10.4282,587224
10.4356,649376
10.443,580191
10.4503,477703
10.4577,480479
10.4651,640098
10.4725,666814
10.4798,537471
10.4872,592573
10.4946,698839
10.502,731260
10.5093,734715
10.5167,660395
10.5241,693698
10.5315,776131
10.5389,683672
10.5462,673515
10.5536,883674
10.561,1055440
10.5684,951087
10.5757,851572
10.5831,863459
10.5905,844301
10.5979,1406301
10.6052,1949741
10.6126,1435500
10.62,727593
10.6274,802336
10.6347,1006844
10.6421,776636
10.6495,584398
10.6569,496908
10.6642,450037
10.6716,416231
10.679,419679
10.6864,623747
10.6938,884941
10.7011,726695
10.7085,493082
10.7159,459810
10.7233,444149
10.7306,431975
10.738,465946
10.7454,516827
10.7528,485381
10.7601,484770
10.7675,637803
10.7749,643467
10.7823,604677
10.7896,686248
10.797,670302
10.8044,549420
10.8118,448144
10.8192,388104
10.8265,391154
10.8339,401603
10.8413,411959
10.8487,463256
10.856,494954
10.8634,519580
10.8708,540956
10.8782,506191
10.8855,466198
10.8929,516621
10.9003,542186
10.9077,486567
10.915,455969
10.9224,580517
10.9298,1196569
10.9372,2763439
10.9446,3896340
10.9519,2034289
10.9593,703022
10.9667,584952
10.9741,609326
10.9814,566996
10.9888,552378
10.9962,575711
11.0036,607129
11.0109,651874
11.0183,605149
11.0257,545871
11.0331,525801
11.0404,513791
11.0478,499027
11.0552,451411
11.0626,473046
11.07,512610
11.0773,489462
11.0847,441679
11.0921,413969
11.0995,427140
11.1068,465793
11.1142,488408
11.1216,455695
11.129,398029
11.1363,397367
11.1437,416892
11.1511,414439
11.1585,415071
11.1658,436357
11.1732,426357
11.1806,419599
11.188,411964
11.1953,412001
11.2027,371254
11.2101,323814
11.2175,355169
11.2249,448892
11.2322,462338
11.2396,399772
11.247,376631
11.2544,376742
11.2617,398706
11.2691,420531
11.2765,429108
11.2839,447941
11.2912,426294
11.2986,416014
11.306,458685
11.3134,526880
11.3207,537120
11.3281,593578
11.3355,571434
11.3429,446760
11.3503,423882
11.3576,562595
11.365,687788
11.3724,596380
11.3798,422503
11.3871,351770
11.3945,382464
11.4019,447060
11.4093,605975
11.4166,611280
11.424,493457
11.4314,523096
11.4388,557185
11.4461,521286
11.4535,668148
11.4609,883758
11.4683,795800
11.4757,580037
11.483,490865
11.4904,441275
11.4978,402558
11.5052,399425
11.5125,471777
11.5199,588194
11.5273,509188
11.5347,385918
11.542,372443
11.5494,379850
11.5568,400628
11.5642,374671
11.5715,349247
11.5789,347600
11.5863,371726
11.5937,417201
11.601,410445
11.6084,350727
11.6158,322584
11.6232,330281
11.6306,336683
11.6379,347056
11.6453,344870
11.6527,350043
11.6601,371249
11.6674,393852
11.6748,371542
11.6822,351011
11.6896,316030
11.6969,304703
11.7043,322444
11.7117,350465
11.7191,351877
11.7264,352664
11.7338,380033
11.7412,709999
11.7486,1732361
11.756,2097707
11.7633,1091212
11.7707,483868
11.7781,383641
11.7855,349432
11.7928,346982
11.8002,412890
11.8076,464179
11.815,446539
11.8223,391676
11.8297,393446
11.8371,402926
11.8445,379201
11.8518,328223
11.8592,321939
11.8666,333425
11.874,343889
11.8814,342484
11.8887,324533
11.8961,302270
11.9035,340695
11.9109,375091
11.9182,355689
11.9256,330328
11.933,350372
11.9404,357367
11.9477,336082
11.9551,308890
11.9625,310536
11.9699,312413
11.9772,294333
11.9846,266843
11.992,265893
11.9994,269169
12.0067,278455
12.0141,292387
12.0215,291473
12.0289,277099
12.0363,252079
12.0436,251744
12.051,253686
12.0584,264353
12.0658,278532
12.0731,281916
12.0805,294380
12.0879,336770
12.0953,404272
12.1026,521620
12.11,708672
12.1174,749587
12.1248,501696
12.1321,293893
12.1395,277704
12.1469,316000
12.1543,296019
12.1617,256930
12.169,253060
12.1764,272531
12.1838,292750
12.1912,317396
12.1985,306288
12.2059,259548
12.2133,228833
12.2207,244733
12.228,287202
12.2354,326957
12.2428,381029
12.2502,372239
12.2575,364766
12.2649,324826
12.2723,279775
12.2797,276636
12.2871,251008
12.2944,273928
12.3018,321793
12.3092,289612
12.3166,232991
12.3239,226284
12.3313,224606
12.3387,223149
12.3461,227381
12.3534,233959
12.3608,241036
12.3682,236386
12.3756,224255
12.3829,227297
12.3903,229238
12.3977,213965
12.4051,224346
12.4124,255317
12.4198,254908
12.4272,253030
12.4346,236006
12.442,207709
12.4493,194682
12.4567,201605
12.4641,214521
12.4715,205955
12.4788,196745
12.4862,193761
12.4936,199669
12.501,216091
12.5083,312133
12.5157,739557
12.5231,1085376
12.5305,723791
12.5378,558599
12.5452,747520
12.5526,709539
12.56,418546
12.5674,256885
12.5747,238298
12.5821,232109
12.5895,224219
12.5969,236233
12.6042,236206
12.6116,214223
12.619,197926
12.6264,198560
12.6337,205404
12.6411,203905
12.6485,188310
12.6559,178238
12.6632,179538
12.6706,192564
12.678,199877
12.6854,189429
12.6928,181614
12.7001,180194
12.7075,182640
12.7149,184147
12.7223,189356
12.7296,183680
12.737,178686
12.7444,180018
12.7518,170382
12.7591,170917
12.7665,170163
12.7739,170189
12.7813,169781
12.7886,165427
12.796,160011
12.8034,164763
12.8108,179682
12.8182,196048
12.8255,217807
12.8329,238177
12.8403,234469
12.8477,207456
12.855,186400
12.8624,187329
12.8698,181631
12.8772,170897
12.8845,183828
12.8919,210464
12.8993,209608
12.9067,174492
12.914,148228
12.9214,143351
12.9288,148854
12.9362,174989
12.9435,198669
12.9509,176530
12.9583,158522
12.9657,148643
12.9731,152336
12.9804,176892
12.9878,198224
12.9952,187197
13.0026,167466
13.0099,149925
13.0173,142618
13.0247,158132
13.0321,185337
13.0394,194580
13.0468,186243
13.0542,162941
13.0616,142111
13.0689,152944
13.0763,163712
13.0837,164753
13.0911,147789
13.0985,143682
13.1058,139954
13.1132,139081
13.1206,143945
13.128,147400
13.1353,147935
13.1427,139365
13.1501,131606
13.1575,129911
13.1648,127890
13.1722,133238
13.1796,132808
13.187,131208
13.1943,133471
13.2017,137527
13.2091,127742
13.2165,119702
13.2239,116920
13.2312,122646
13.2386,177036
13.246,383487
13.2534,526075
13.2607,340471
13.2681,161824
13.2755,126593
13.2829,138409
13.2902,207022
13.2976,316625
13.305,343493
13.3124,241428
13.3197,148986
13.3271,121929
13.3345,119193
13.3419,122255
13.3492,126684
13.3566,125334
13.364,116170
13.3714,112918
13.3788,118857
13.3861,114778
13.3935,112481
13.4009,114350
13.4083,107631
13.4156,104933
13.423,106160
13.4304,111722
13.4378,105934
13.4451,104229
13.4525,104786
13.4599,109716
13.4673,109969
13.4746,113542
13.482,117298
13.4894,114757
13.4968,109250
13.5042,102746
13.5115,99566
13.5189,100511
13.5263,106731
13.5337,119168
13.541,125776
13.5484,121081
13.5558,119702
13.5632,119503
13.5705,116203
13.5779,113450
13.5853,107796
13.5927,103937
13.6,111197
13.6074,113038
13.6148,104670
13.6222,93052
13.6296,91742
13.6369,95395
13.6443,102847
13.6517,109273
13.6591,104362
13.6664,96799
13.6738,93829
13.6812,91162
13.6886,101180
13.6959,114217
13.7033,109245
13.7107,97725
13.7181,93288
13.7254,94695
13.7328,99049
13.7402,100970
13.7476,105722
13.7549,116492
13.7623,109713
13.7697,106290
13.7771,102522
13.7845,92692
13.7918,92019
13.7992,91657
13.8066,91135
13.814,89292
13.8213,87923
13.8287,88158
13.8361,88057
13.8435,90079
13.8508,91336
13.8582,91674
13.8656,104558
13.873,120153
13.8803,117187
13.8877,102783
13.8951,92691
13.9025,88208
13.9099,88929
13.9172,86462
13.9246,82493
13.932,96652
13.9394,181742
13.9467,304786
13.9541,244975
13.9615,129571
13.9689,91467
13.9762,82749
13.9836,81382
13.991,82544
13.9984,83441
14.0057,89521
14.0131,95815
14.0205,95837
14.0279,90705
14.0353,86353
14.0426,80416
14.05,77642
14.0574,80779
14.0648,84935
14.0721,81648
14.0795,81403
14.0869,89285
14.0943,93361
14.1016,84418
14.109,79213
14.1164,75325
14.1238,74524
14.1311,72777
14.1385,74331
14.1459,71646
14.1533,72162
14.1606,75073
14.168,80073
14.1754,85377
14.1828,82800
14.1902,81303
14.1975,83103
14.2049,86827
14.2123,90660
14.2197,85821
14.227,85065
14.2344,82406
14.2418,78528
14.2492,77126
14.2565,75428
14.2639,75583
14.2713,78131
14.2787,78555
14.286,74417
14.2934,73420
14.3008,71885
14.3082,71405
14.3156,74315
14.3229,78247
14.3303,78070
14.3377,75532
14.3451,74078
14.3524,76897
14.3598,84757
14.3672,81801
14.3746,73198
14.3819,70059
14.3893,68687
14.3967,67101
14.4041,71170
14.4114,88780
14.4188,85681
14.4262,74666
14.4336,68413
14.441,71651
14.4483,79088
14.4557,86534
14.4631,84685
14.4705,76393
14.4778,71073
14.4852,68131
14.4926,69373
14.5,67768
14.5073,67055
14.5147,65738
14.5221,67837
14.5295,67123
14.5368,71815
14.5442,73223
14.5516,69644
14.559,67515
14.5664,66511
14.5737,92548
14.5811,193128
14.5885,223442
14.5959,120805
14.6032,78452
14.6106,72150
14.618,69998
14.6254,69269
14.6327,67169
14.6401,66903
14.6475,70084
14.6549,67725
14.6622,70305
14.6696,69696
14.677,68921
14.6844,67968
14.6917,67529
14.6991,67782
14.7065,68667
14.7139,66799
14.7213,63158
14.7286,64564
14.736,61354
14.7434,59910
14.7508,60338
14.7581,59375
14.7655,59679
14.7729,64114
14.7803,66313
14.7876,63958
14.795,65249
14.8024,72050
14.8098,78654
14.8171,73066
14.8245,68621
14.8319,68040
14.8393,66808
14.8467,67435
14.854,65717
14.8614,66510
14.8688,65880
14.8762,64504
14.8835,65188
14.8909,67780
14.8983,63190
14.9057,65328
14.913,69077
14.9204,66369
14.9278,62236
14.9352,66073
14.9425,77475
14.9499,76618
14.9573,70310
14.9647,68755
14.9721,66019
14.9794,65360
14.9868,74699
14.9942,86127
15.0016,82539
15.0089,77504
15.0163,68182
15.0237,63135
15.0311,62417
15.0384,61770
15.0458,65918
15.0532,72089
15.0606,68400
15.0679,63150
15.0753,59221
15.0827,60258
15.0901,63100
15.0974,63232
15.1048,62278
15.1122,61532
15.1196,59661
15.127,63173
15.1343,109367
15.1417,198078
15.1491,148376
15.1565,81151
15.1638,66137
15.1712,62144
15.1786,64047
15.186,62776
15.1933,60596
15.2007,60480
15.2081,58961
15.2155,60398
15.2228,64551
15.2302,63431
15.2376,60396
15.245,61797
15.2524,64953
15.2597,65601
15.2671,65230
15.2745,68946
15.2819,71482
15.2892,70624
15.2966,69902
15.304,66500
15.3114,64031
15.3187,65161
15.3261,69911
15.3335,76194
15.3409,74703
15.3482,73065
15.3556,75535
15.363,75812
15.3704,76303
15.3778,77175
15.3851,74560
15.3925,71610
15.3999,67884
15.4073,65623
15.4146,61752
15.422,63462
15.4294,65668
15.4368,65971
15.4441,63549
15.4515,64150
15.4589,69694
15.4663,68205
15.4736,66021
15.481,65461
15.4884,61483
15.4958,60281
15.5031,66536
15.5105,65500
15.5179,64543
15.5253,65169
15.5327,63599
15.54,65451
15.5474,61665
15.5548,58300
15.5622,58923
15.5695,60732
15.5769,64123
15.5843,65343
15.5917,60719
15.599,60082
15.6064,60575
15.6138,59498
15.6212,67790
15.6285,117768
15.6359,186160
15.6433,129422
15.6507,76218
15.6581,64043
15.6654,62479
15.6728,63731
15.6802,63935
15.6876,64011
15.6949,63887
15.7023,61707
15.7097,61442
15.7171,63317
15.7244,64379
15.7318,60867
15.7392,59740
15.7466,59309
15.7539,59813
15.7613,57798
15.7687,61615
15.7761,66828
15.7835,69313
15.7908,66702
15.7982,68644
15.8056,67549
15.813,67870
15.8203,65610
15.8277,62862
15.8351,62777
15.8425,61194
15.8498,61774
15.8572,62762
15.8646,60234
15.872,58256
15.8793,59363
15.8867,62870
15.8941,66620
15.9015,63327
15.9089,63082
15.9162,68501
15.9236,69365
15.931,63648
15.9384,59633
15.9457,61026
15.9531,61311
15.9605,63478
15.9679,62557
15.9752,60589
15.9826,59534
15.99,60912
15.9974,62851
16.0047,62348
16.0121,61570
16.0195,59277
16.0269,58839
16.0342,59522
16.0416,61234
16.049,62285
16.0564,60179
16.0637,59648
16.0711,74837
16.0785,141613
16.0859,143040
16.0933,86022
16.1006,67103
16.108,65007
16.1154,64327
16.1228,66150
16.1301,66677
16.1375,65823
16.1449,67013
16.1523,63460
16.1596,61451
16.167,60101
16.1744,62238
16.1818,60483
16.1892,59599
16.1965,59319
16.2039,62268
16.2113,67960
16.2187,67993
16.226,66669
16.2334,69593
16.2408,68304
16.2481,63992
16.2555,63724
16.2629,63817
16.2703,63588
16.2777,61605
16.285,58402
16.2924,58168
16.2998,57681
16.3072,59604
16.3146,57980
16.3219,56626
16.3293,57407
16.3367,59418
16.344,57998
16.3514,58328
16.3588,59860
16.3662,59961
16.3736,56379
16.3809,56027
16.3883,55547
16.3957,57068
16.4031,58371
16.4104,57529
16.4178,54819
16.4252,54653
16.4326,54378
16.4399,54895
16.4473,52566
16.4547,53604
16.4621,55742
16.4694,56358
16.4768,56796
16.4842,54195
16.4916,53455
16.499,54330
16.5063,55696
16.5137,66573
16.5211,96293
16.5284,105858
16.5358,76667
16.5432,59851
16.5506,57351
16.558,57046
16.5653,55547
16.5727,54245
16.5801,53661
16.5875,52913
16.5949,52072
16.6022,53691
16.6096,52401
16.617,51511
16.6244,51181
16.6317,51070
16.6391,50906
16.6465,51879
16.6538,52293
16.6612,53177
16.6686,52955
16.676,55282
16.6834,56722
16.6907,59917
16.6981,59137
16.7055,57752
16.7129,58029
16.7203,55334
16.7276,53410
16.735,51746
16.7424,49737
16.7497,51523
16.7571,50346
16.7645,49771
16.7719,49521
16.7793,49240
16.7866,48897
16.794,50295
16.8014,52692
16.8088,55675
16.8161,55947
16.8235,52905
16.8309,50682
16.8383,51037
16.8456,49331
16.853,48898
16.8604,50625
16.8678,50755
16.8752,49196
16.8825,47942
16.8899,47321
16.8973,47148
16.9047,44587
16.912,46030
16.9194,44590
16.9268,45746
16.9341,45484
16.9415,44469
16.9489,45208
16.9563,46687
16.9637,45668
16.971,45208
16.9784,45778
16.9858,47420
16.9932,51405
17.0006,62543
17.0079,67233
17.0153,59888
17.0227,50619
17.03,47248
17.0374,47001
17.0448,45866
17.0522,46532
17.0596,46823
17.0669,46201
17.0743,45577
17.0817,44061
17.0891,44704
17.0964,47459
17.1038,45909
17.1112,46653
17.1186,46603
17.126,47412
17.1333,48787
17.1407,48232
17.1481,49151
17.1554,48212
17.1628,50383
17.1702,49945
17.1776,51159
17.185,50559
17.1923,52943
17.1997,51909
17.2071,51226
17.2145,49930
17.2218,49330
17.2292,48355
17.2366,49772
17.244,49075
17.2513,48447
17.2587,47875
17.2661,49147
17.2735,49719
17.2809,50315
17.2882,51369
17.2956,50348
17.303,51623
17.3104,52677
17.3177,52215
17.3251,52238
17.3325,50319
17.3398,50820
17.3472,50950
17.3546,50347
17.362,49389
17.3694,48058
17.3767,46734
17.3841,46291
17.3915,45776
17.3989,43078
17.4063,44356
17.4136,44480
17.421,42168
17.4284,43051
17.4357,42604
17.4431,42311
17.4505,43225
17.4579,45542
17.4653,45104
17.4726,48324
17.48,52466
17.4874,56574
