D:\Data GC-MS\2021\7 JULY\12-07-21\SPME 35003-21-1 SKYKK.D 12 Jul 21  08:02 am
Start of data points
1.29382,113565
1.30057,113429
1.3073,112211
1.31405,111079
1.32078,110076
1.32753,109965
1.33427,109134
1.34102,107434
1.34775,106915
1.3545,106093
1.36125,104833
1.36798,104961
1.37473,104229
1.38147,102552
1.38822,102513
1.39495,100856
1.4017,99939
1.40845,99013
1.41518,98528
1.42193,97794
1.42867,96567
1.43542,96471
1.44215,94744
1.4489,94715
1.45565,94351
1.46238,93607
1.46913,93182
1.47587,92195
1.48262,91879
1.48935,90295
1.51022,339468
1.5176,333681
1.52497,331882
1.53235,327754
1.53972,321161
1.5471,320268
1.55448,319193
1.56185,313697
1.56923,311104
1.5766,310770
1.58398,305234
1.59137,303563
1.59873,297467
1.60612,293123
1.61348,294018
1.62087,291877
1.62823,288008
1.63562,284015
1.643,283324
1.65037,279738
1.65775,276067
1.66512,271279
1.6725,270954
1.67987,269120
1.68725,265270
1.69463,263443
1.702,259339
1.70938,257952
1.71675,255064
1.72413,250994
1.73152,246540
1.73888,249270
1.74627,242053
1.75363,240077
1.76102,238309
1.76838,236073
1.77577,235402
1.78315,230816
1.79052,227793
1.7979,227340
1.80527,223531
1.81265,222966
1.82003,218271
1.8274,219155
1.83478,215345
1.84215,212936
1.84953,211506
1.8569,207845
1.86428,205540
1.87167,202231
1.87903,202382
1.88642,199095
1.89378,197125
1.90117,196498
1.90855,195499
1.91592,191400
1.9233,190768
1.93067,188625
1.93805,186886
1.94542,184469
1.9528,183002
1.96018,179593
1.96755,179527
1.97493,176040
1.9823,175111
1.98968,171813
1.99707,170893
2.00443,170780
2.01182,168549
2.01918,166160
2.02657,163104
2.03393,162967
2.04132,162372
2.0487,159595
2.05607,160007
2.06345,157274
2.07082,153528
2.0782,152392
2.08558,152294
2.09295,151448
2.10033,147570
2.1077,148707
2.11508,146094
2.12245,145728
2.12983,144158
2.13722,141959
2.14458,142953
2.15197,140301
2.15933,140099
2.16672,137215
2.1741,137232
2.18147,134799
2.18885,134443
2.19622,132918
2.2036,132987
2.21097,132566
2.21835,129466
2.22573,130875
2.2331,128120
2.24048,124831
2.24785,125100
2.25523,124871
2.2626,122240
2.26998,122544
2.27737,122090
2.28473,121745
2.29212,122104
2.29948,120193
2.30687,122596
2.31425,121572
2.32162,121284
2.329,121245
2.33637,120757
2.34375,119708
2.35112,118124
2.3585,116607
2.36588,113280
2.37325,112335
2.38063,112356
2.388,109821
2.39538,109781
2.40277,108428
2.41013,105993
2.41752,104351
2.42488,104984
2.43227,103371
2.43963,101243
2.44702,101625
2.4544,99625
2.46177,98003
2.46915,98448
2.47652,97735
2.4839,96733
2.49128,96365
2.49865,95251
2.50603,93680
2.5134,93919
2.52078,93025
2.52815,94943
2.53553,98083
2.54292,98213
2.55028,99344
2.55767,98376
2.56503,95998
2.57242,97586
2.5798,95704
2.58717,95386
2.59455,93582
2.60192,92126
2.6093,91638
2.61667,91347
2.62405,90553
2.63143,88848
2.6388,88797
2.64618,87867
2.65355,86007
2.66093,85357
2.66832,83118
2.67568,83015
2.68307,81732
2.69043,83043
2.69782,81216
2.70518,80847
2.71257,79862
2.71995,78188
2.72732,78188
2.7347,79295
2.74207,76233
2.74945,78488
2.75683,76766
2.7642,76514
2.77158,73546
2.77895,75772
2.78633,73533
2.7937,72324
2.80108,72794
2.80847,70872
2.81583,71967
2.82322,70775
2.83058,69301
2.83797,69213
2.84533,67978
2.85272,68237
2.8601,68303
2.86747,67324
2.87485,66771
2.88222,67556
2.8896,67601
2.89698,65912
2.90435,65920
2.91173,65629
2.9191,66148
2.92648,65607
2.93385,64906
2.94123,65553
2.94862,64102
2.95598,61478
2.96337,61890
2.97073,62097
2.97812,61493
2.9855,62633
2.99287,61158
3.00025,60923
3.00762,60125
3.015,59962
3.02237,61702
3.02975,60576
3.03713,60713
3.0445,59580
3.05188,58733
3.05925,59414
3.06663,59738
3.07402,59053
3.08138,58833
3.08877,58226
3.09613,55454
3.10352,56705
3.11088,56585
3.11827,55885
3.12565,54735
3.13302,56384
3.1404,55563
3.14777,54759
3.15515,54834
3.16253,54586
3.1699,55386
3.17728,55253
3.18465,54026
3.19203,54688
3.1994,54615
3.20678,54200
3.21417,54144
3.22153,54678
3.22892,53264
3.23628,54479
3.24367,53802
3.25105,52262
3.25842,52358
3.2658,51548
3.27317,53414
3.28055,52657
3.28792,53366
3.2953,50768
3.30268,51589
3.31005,54235
3.31743,55533
3.3248,58550
3.33218,65114
3.33957,69859
3.34693,75001
3.35432,74828
3.36168,71314
3.36907,68389
3.37643,65315
3.38382,60364
3.3912,58037
3.39857,57174
3.40595,54083
3.41332,53112
3.4207,50935
3.42807,50078
3.43545,48875
3.44283,48619
3.4502,46953
3.45758,46218
3.46495,45786
3.47233,46625
3.47972,45907
3.48708,45762
3.49447,44332
3.50183,46789
3.50922,45482
3.51658,45396
3.52397,44122
3.53135,44268
3.53872,43800
3.5461,43539
3.55347,44716
3.56085,44830
3.56823,44754
3.5756,46650
3.58298,47431
3.59035,49289
3.59773,51481
3.6051,54370
3.61248,55995
3.61987,52877
3.62723,51910
3.63462,49954
3.64198,47254
3.64937,46337
3.65675,46076
3.66412,45620
3.6715,45599
3.67887,46078
3.68625,45646
3.69362,49718
3.701,52951
3.70838,57243
3.71575,57855
3.72313,55685
3.7305,53892
3.73788,49152
3.74527,48037
3.75263,45697
3.76002,43937
3.76738,43720
3.77477,43125
3.78213,42456
3.78952,42730
3.7969,42768
3.80427,43991
3.81165,45145
3.81902,44813
3.8264,44535
3.83378,43836
3.84115,41662
3.84853,42236
3.8559,43245
3.86328,48760
3.87065,56795
3.87803,62965
3.88542,64858
3.89278,60538
3.90017,56373
3.90753,51612
3.91492,48259
3.9223,47024
3.92967,44779
3.93705,44513
3.94442,43674
3.9518,44485
3.95917,44393
3.96655,45577
3.97393,43343
3.9813,41622
3.98868,40686
3.99605,40010
4.00343,41249
4.0108,41281
4.01818,41898
4.02557,41748
4.03293,42526
4.04032,41580
4.04768,41535
4.05507,41227
4.06245,43181
4.06982,48489
4.0772,55625
4.08457,60955
4.09195,57567
4.09932,52226
4.1067,50358
4.11408,51311
4.12145,52268
4.12883,52972
4.1362,50825
4.14358,47583
4.15097,45529
4.15833,43544
4.16572,48055
4.17308,90573
4.18047,206481
4.18783,322483
4.19522,345070
4.2026,281715
4.20997,199161
4.21735,130722
4.22472,87695
4.2321,64726
4.23948,50688
4.24685,44365
4.25423,42264
4.2616,40612
4.26898,39419
4.27635,37726
4.28373,39042
4.29112,39097
4.29848,38442
4.30587,38503
4.31323,38112
4.32062,37825
4.328,37885
4.33537,37405
4.34275,38190
4.35012,38353
4.3575,38763
4.36487,40100
4.37225,40399
4.37963,38886
4.387,39445
4.39438,40122
4.40175,45295
4.40913,53549
4.41652,60411
4.42388,57649
4.43127,54623
4.43863,64598
4.44602,87424
4.45338,101523
4.46077,94563
4.46815,75894
4.47552,59257
4.4829,50673
4.49027,43066
4.49765,39379
4.50503,38213
4.5124,38108
4.51978,37275
4.52715,36981
4.53453,38429
4.5419,52505
4.54928,89297
4.55667,121237
4.56403,130718
4.57142,121142
4.57878,103593
4.58617,82700
4.59353,66168
4.60092,52743
4.6083,43855
4.61567,38884
4.62305,36940
4.63042,36029
4.6378,35746
4.64518,36998
4.65255,41421
4.65993,48348
4.6673,55612
4.67468,57338
4.68205,54283
4.68943,50184
4.69682,45504
4.70418,39995
4.71157,38825
4.71893,39944
4.72632,39538
4.7337,39442
4.74107,41403
4.74845,41963
4.75582,42718
4.7632,40391
4.77057,37552
4.77795,41451
4.78533,72945
4.7927,145374
4.80008,201642
4.80745,209778
4.81483,188739
4.82222,167371
4.82958,152143
4.83697,133603
4.84433,103048
4.85172,76421
4.85908,60257
4.86647,53056
4.87385,46723
4.88122,46863
4.8886,64412
4.89597,110505
4.90335,135933
4.91073,114659
4.9181,86582
4.92548,76362
4.93285,72389
4.94023,72550
4.9476,68536
4.95498,59552
4.96237,52644
4.96973,47726
4.97712,42569
4.98448,38846
4.99187,35956
4.99925,34676
5.00662,34775
5.014,36368
5.02137,40092
5.02875,43039
5.03612,50977
5.0435,68334
5.05088,77665
5.05825,65833
5.06563,49398
5.073,40085
5.08038,35712
5.08777,36918
5.09513,38391
5.10252,40057
5.10988,43214
5.11727,40535
5.12463,39021
5.13202,36196
5.1394,35073
5.14677,33134
5.15415,34633
5.16152,36399
5.1689,37623
5.17627,39122
5.18365,41709
5.19103,64440
5.1984,104382
5.20578,115721
5.21315,86118
5.22053,58375
5.22792,47511
5.23528,42860
5.24267,38642
5.25003,36795
5.25742,35435
5.26478,34557
5.27217,34756
5.27955,33753
5.28692,35344
5.2943,36745
5.30167,41529
5.30905,45785
5.31643,60840
5.3238,85005
5.33118,83942
5.33855,64562
5.34593,48209
5.3533,40745
5.36068,37144
5.36807,35579
5.37543,36595
5.38282,38025
5.39018,38563
5.39757,40026
5.40495,40165
5.41232,38005
5.4197,38518
5.42707,41702
5.43445,47308
5.44182,51835
5.4492,51995
5.45658,47614
5.46395,46853
5.47133,47071
5.4787,44301
5.48608,39140
5.49347,36550
5.50083,35656
5.50822,38958
5.51558,42979
5.52297,48384
5.53033,57284
5.53772,61925
5.5451,61822
5.55247,63610
5.55985,66256
5.56722,55350
5.5746,43742
5.58198,39665
5.58935,40302
5.59673,40062
5.6041,40450
5.61148,45446
5.61885,60549
5.62623,68078
5.63362,85868
5.64098,128977
5.64837,119967
5.65573,82732
5.66312,68322
5.6705,66878
5.67787,74165
5.68525,70392
5.69262,57545
5.7,47887
5.70737,44146
5.71475,43241
5.72213,86043
5.7295,368458
5.73688,813931
5.74425,822707
5.75163,407999
5.75902,145898
5.76638,65427
5.77377,48510
5.78113,41472
5.78852,41184
5.79588,43764
5.80327,48311
5.81065,66778
5.81802,106875
5.8254,110871
5.83277,88542
5.84015,87170
5.84752,106238
5.8549,104889
5.86228,98310
5.86965,128865
5.87703,178448
5.8844,202197
5.89178,155005
5.89917,106841
5.90653,97881
5.91392,137976
5.92128,131775
5.92867,88070
5.93603,63598
5.94342,60068
5.9508,92177
5.95817,340444
5.96555,837508
5.97292,824184
5.9803,336322
5.98768,133363
5.99505,133760
6.00243,143150
6.0098,113931
6.01718,113423
6.02455,204256
6.03193,361790
6.03932,326642
6.04668,184069
6.05407,126697
6.06143,272812
6.06882,478513
6.0762,342457
6.08357,124274
6.09095,63953
6.09832,65687
6.1057,73785
6.11307,77099
6.12045,85525
6.12783,85837
6.1352,77740
6.14258,132177
6.14995,241052
6.15733,218041
6.16472,98746
6.17208,52502
6.17947,54980
6.18683,95743
6.19422,208920
6.20158,267103
6.20897,182118
6.21635,120724
6.22372,95670
6.2311,65139
6.23847,46121
6.24585,42320
6.25323,45024
6.2606,49829
6.26798,51191
6.27535,61423
6.28273,73191
6.2901,86340
6.29748,90110
6.30487,70859
6.31223,73966
6.31962,103270
6.32698,87539
6.33437,63766
6.34175,77380
6.34912,115810
6.3565,134402
6.36387,381488
6.37125,1262181
6.37862,1558004
6.386,695415
6.39338,211068
6.40075,105895
6.40813,93556
6.4155,87262
6.42288,90189
6.43025,160164
6.43763,263821
6.44502,250090
6.45238,135476
6.45977,84311
6.46713,66118
6.47452,60447
6.4819,71531
6.48927,79747
6.49665,82029
6.50402,93409
6.5114,109866
6.51877,104835
6.52615,78661
6.53353,62719
6.5409,65183
6.54828,70288
6.55565,59268
6.56303,54175
6.57042,59349
6.57778,71806
6.58517,88389
6.59253,85558
6.59992,73060
6.60728,72513
6.61467,78580
6.62205,91122
6.62942,113910
6.6368,101645
6.64417,85432
6.65155,82441
6.65893,101179
6.6663,152815
6.67368,158458
6.68105,158175
6.68843,226071
6.6958,200762
6.70318,105961
6.71057,63933
6.71793,96272
6.72532,255877
6.73268,489747
6.74007,468864
6.74745,251728
6.75482,128703
6.7622,108112
6.76957,103927
6.77695,85907
6.78432,73670
6.7917,60602
6.79908,64726
6.80645,89326
6.81383,94624
6.8212,85755
6.82858,99035
6.83597,119300
6.84333,114441
6.85072,134726
6.85808,141635
6.86547,109854
6.87283,98849
6.88022,89601
6.8876,75395
6.89497,69631
6.90235,100457
6.90972,343530
6.9171,1141576
6.92448,1428217
6.93185,618944
6.93923,191472
6.9466,157214
6.95398,240859
6.96135,757690
6.96873,1165951
6.97612,654060
6.98348,320519
6.99087,232905
6.99823,140248
7.00562,143452
7.01298,132334
7.02037,109169
7.02775,109887
7.03512,149585
7.0425,210526
7.04987,184528
7.05725,144366
7.06463,279997
7.072,1130887
7.07938,2037644
7.08675,1289237
7.09413,328856
7.1015,154080
7.10888,118369
7.11627,114676
7.12363,164728
7.13102,179172
7.13838,123167
7.14577,114838
7.15315,156591
7.16052,423395
7.1679,1146451
7.17527,1191851
7.18265,399823
7.19002,124501
7.1974,97398
7.20478,143094
7.21215,293100
7.21953,351382
7.2269,217240
7.23428,123075
7.24167,106200
7.24903,111758
7.25642,123556
7.26378,131641
7.27117,130028
7.27853,123894
7.28592,135232
7.2933,143296
7.30067,141859
7.30805,184634
7.31542,233566
7.3228,232957
7.33018,171592
7.33755,110060
7.34493,111289
7.3523,149100
7.35968,238736
7.36705,244851
7.37443,166961
7.38182,132348
7.38918,155796
7.39657,189454
7.40393,162199
7.41132,121759
7.4187,256981
7.42607,558628
7.43345,510131
7.44082,248910
7.4482,154805
7.45557,110801
7.46295,91792
7.47033,108531
7.4777,129626
7.48508,189398
7.49245,314716
7.49983,321239
7.50722,191589
7.51458,125081
7.52197,114984
7.52933,109499
7.53672,119823
7.54408,145429
7.55147,155544
7.55885,131687
7.56622,117141
7.5736,116084
7.58097,115618
7.58835,98601
7.59572,97345
7.6031,112564
7.61048,156925
7.61785,209156
7.62523,172416
7.6326,137389
7.63998,135820
7.64737,172172
7.65473,243570
7.66212,376962
7.66948,781286
7.67687,935792
7.68423,435171
7.69162,234967
7.699,387639
7.70637,362893
7.71375,171542
7.72112,116758
7.7285,115892
7.73588,108003
7.74325,130960
7.75063,203850
7.758,248544
7.76538,226330
7.77275,192666
7.78013,159692
7.78752,133885
7.79488,105383
7.80227,117034
7.80963,139765
7.81702,148635
7.8244,175696
7.83177,184982
7.83915,159993
7.84652,171201
7.8539,239465
7.86127,237722
7.86865,156882
7.87603,128531
7.8834,149275
7.89078,173850
7.89815,190761
7.90553,200344
7.91292,194253
7.92028,269117
7.92767,260697
7.93503,156800
7.94242,118774
7.94978,136424
7.95717,130482
7.96455,148712
7.97192,240578
7.9793,246943
7.98667,145748
7.99405,103371
8.00143,132906
8.0088,183906
8.01618,186800
8.02355,230803
8.03093,431179
8.0383,450724
8.04568,297001
8.05307,245532
8.06043,188226
8.06782,156782
8.07518,132623
8.08257,132265
8.08995,158526
8.09732,217416
8.1047,471750
8.11207,1648659
8.11945,3001238
8.12682,1926221
8.1342,462667
8.14158,204881
8.14895,273016
8.15633,406943
8.1637,479114
8.17108,430522
8.17845,258439
8.18583,195172
8.19322,627038
8.20058,1773515
8.20797,1847989
8.21533,618294
8.22272,193770
8.2301,198029
8.23747,267091
8.24485,344247
8.25222,294064
8.2596,248425
8.26697,210430
8.27435,164056
8.28173,167352
8.2891,179285
8.29648,147513
8.30385,162557
8.31123,272403
8.31862,263063
8.32598,181838
8.33337,193759
8.34073,238304
8.34812,204363
8.35548,152064
8.36287,122618
8.37025,133922
8.37762,182317
8.385,194532
8.39237,322985
8.39975,431573
8.40713,263454
8.4145,177147
8.42188,186211
8.42925,192623
8.43663,207658
8.444,207530
8.45138,179750
8.45877,202863
8.46613,278854
8.47352,259924
8.48088,209079
8.48827,183680
8.49565,157201
8.50302,161840
8.5104,228236
8.51777,377379
8.52515,351570
8.53252,229727
8.5399,188315
8.54728,170875
8.55465,176560
8.56203,213263
8.5694,208715
8.57678,183758
8.58417,203143
8.59153,249444
8.59892,393789
8.60628,671297
8.61367,677216
8.62103,331022
8.62842,171179
8.6358,137216
8.64317,144139
8.65055,202091
8.65792,400054
8.6653,578982
8.67268,466112
8.68005,245920
8.68743,146151
8.6948,138879
8.70218,141284
8.70955,134053
8.71693,154003
8.72432,207132
8.73168,218098
8.73907,195601
8.74643,248764
8.75382,381238
8.76118,470758
8.76857,394013
8.77595,283627
8.78332,195791
8.7907,165388
8.79807,178310
8.80545,195414
8.81283,204756
8.8202,222067
8.82758,261148
8.83495,264887
8.84233,216599
8.8497,178659
8.85708,158344
8.86447,155046
8.87183,185951
8.87922,351458
8.88658,593129
8.89397,484043
8.90135,264810
8.90872,205042
8.9161,204493
8.92347,194749
8.93085,192824
8.93822,223029
8.9456,243373
8.95298,263052
8.96035,260445
8.96773,242824
8.9751,303570
8.98248,316794
8.98987,218428
8.99723,191647
9.00462,243485
9.01198,520089
9.01937,794490
9.02673,650864
9.03412,381429
9.0415,234565
9.04887,252231
9.05625,269839
9.06362,222586
9.071,208291
9.07838,336572
9.08575,1211545
9.09313,2785017
9.1005,2441542
9.10788,756014
9.11525,431459
9.12263,537597
9.13002,417727
9.13738,298891
9.14477,312398
9.15213,336728
9.15952,406349
9.1669,1153451
9.17427,2586513
9.18165,3851379
9.18902,5100069
9.1964,3125506
9.20377,649314
9.21115,322502
9.21853,240540
9.2259,192746
9.23328,214571
9.24065,214085
9.24803,248422
9.25542,679815
9.26278,1752841
9.27017,2029498
9.27753,1006891
9.28492,326790
9.29228,189403
9.29967,182753
9.30705,235941
9.31442,226156
9.3218,186006
9.32917,301802
9.33655,1346138
9.34392,3578425
9.3513,3512480
9.35868,1090884
9.36605,207672
9.37343,142483
9.3808,134672
9.38818,135064
9.39557,162296
9.40293,233049
9.41032,330067
9.41768,316648
9.42507,229120
9.43243,179991
9.43982,148905
9.4472,144212
9.45457,158973
9.46195,167063
9.46932,169298
9.4767,172961
9.48408,163497
9.49145,151353
9.49883,155509
9.5062,160923
9.51358,186437
9.52095,249658
9.52833,378945
9.53572,375751
9.54308,232915
9.55047,201918
9.55783,230892
9.56522,233569
9.5726,212790
9.57997,268546
9.58735,599334
9.59472,749974
9.6021,366766
9.60947,186150
9.61685,165975
9.62423,178208
9.6316,202503
9.63898,207091
9.64635,177876
9.65373,166836
9.66112,191633
9.66848,227584
9.67587,216157
9.68323,190073
9.69062,168728
9.69798,173192
9.70537,197445
9.71275,226717
9.72012,202518
9.7275,182858
9.73487,169826
9.74225,159564
9.74963,180805
9.757,206977
9.76438,195603
9.77175,171837
9.77913,171475
9.7865,235891
9.79388,414336
9.80127,435273
9.80863,268604
9.81602,218481
9.82338,463102
9.83077,1110533
9.83815,1104370
9.84552,457095
9.8529,182652
9.86027,195326
9.86765,233700
9.87502,220725
9.8824,169531
9.88978,157393
9.89715,262014
9.90453,383395
9.9119,330183
9.91928,245899
9.92665,237945
9.93403,451493
9.94142,670525
9.94878,477504
9.95617,240814
9.96353,214699
9.97092,251750
9.9783,259485
9.98567,363764
9.99305,399865
10.0004,724640
10.0078,2308933
10.0152,2962927
10.0226,1256560
10.0299,319679
10.0373,264252
10.0447,341696
10.0521,432360
10.0594,378193
10.0668,320965
10.0742,845283
10.0816,1752460
10.0889,1229203
10.0963,372347
10.1037,224874
10.1111,265433
10.1185,291310
10.1258,224702
10.1332,206611
10.1406,301346
10.148,317817
10.1553,249991
10.1627,229695
10.1701,229505
10.1775,212772
10.1848,177159
10.1922,145259
10.1996,142797
10.207,208017
10.2143,322258
10.2217,309083
10.2291,194470
10.2365,144753
10.2439,139707
10.2512,136676
10.2586,142195
10.266,142443
10.2734,157062
10.2807,179766
10.2881,171173
10.2955,152215
10.3029,186136
10.3102,257949
10.3176,217447
10.325,159171
10.3324,169973
10.3397,177210
10.3471,189744
10.3545,212485
10.3619,193239
10.3692,161973
10.3766,219698
10.384,347761
10.3914,331966
10.3988,210326
10.4061,163093
10.4135,161729
10.4209,197480
10.4283,282027
10.4356,295037
10.443,214326
10.4504,161919
10.4578,173944
10.4651,188630
10.4725,206302
10.4799,205396
10.4873,253493
10.4946,250782
10.502,189901
10.5094,173356
10.5168,186861
10.5242,180645
10.5315,158652
10.5389,158728
10.5463,189830
10.5537,198429
10.561,217657
10.5684,277624
10.5758,300541
10.5832,240375
10.5905,184822
10.5979,167654
10.6053,174090
10.6127,173145
10.62,167070
10.6274,166076
10.6348,168357
10.6422,225235
10.6496,336218
10.6569,535258
10.6643,536020
10.6717,320989
10.6791,250345
10.6864,262999
10.6938,229204
10.7012,193766
10.7086,194576
10.7159,216154
10.7233,239596
10.7307,252961
10.7381,247634
10.7454,356608
10.7528,369234
10.7602,219235
10.7676,148666
10.7749,150532
10.7823,166662
10.7897,176066
10.7971,260187
10.8045,465330
10.8118,584501
10.8192,405221
10.8266,267034
10.834,286979
10.8413,245469
10.8487,209988
10.8561,215309
10.8635,454506
10.8708,1380235
10.8782,1942109
10.8856,939105
10.893,267209
10.9003,200271
10.9077,231597
10.9151,281444
10.9225,298531
10.9299,583337
10.9372,1236852
10.9446,1236222
10.952,463133
10.9594,179094
10.9667,212876
10.9741,252471
10.9815,206685
10.9889,175625
10.9962,211463
11.0036,217157
11.011,187390
11.0184,187169
11.0257,198755
11.0331,171150
11.0405,155726
11.0479,137328
11.0553,133615
11.0626,181118
11.07,257082
11.0774,421446
11.0848,894489
11.0921,878716
11.0995,394920
11.1069,171647
11.1143,143535
11.1216,125043
11.129,123034
11.1364,131171
11.1438,132571
11.1511,167504
11.1585,307713
11.1659,472307
11.1733,383476
11.1806,201136
11.188,131918
11.1954,115781
11.2028,120458
11.2102,143773
11.2175,214830
11.2249,278607
11.2323,269358
11.2397,217113
11.247,149507
11.2544,128925
11.2618,117457
11.2692,116796
11.2765,131244
11.2839,139457
11.2913,138380
11.2987,192868
11.306,409193
11.3134,544889
11.3208,354107
11.3282,179873
11.3356,141429
11.3429,123755
11.3503,118771
11.3577,115473
11.3651,111821
11.3724,104598
11.3798,121857
11.3872,233003
11.3946,365460
11.4019,257314
11.4093,162308
11.4167,132343
11.4241,131837
11.4314,217198
11.4388,290597
11.4462,212879
11.4536,151535
11.461,147314
11.4683,135321
11.4757,112218
11.4831,102446
11.4905,98137
11.4978,104504
11.5052,121159
11.5126,118638
11.52,116101
11.5273,114617
11.5347,111892
11.5421,106431
11.5495,108564
11.5568,123104
11.5642,132084
11.5716,134143
11.579,130667
11.5864,116665
11.5937,114834
11.6011,114997
11.6085,104978
11.6159,107607
11.6232,138871
11.6306,254294
11.638,290354
11.6454,209776
11.6527,201094
11.6601,355760
11.6675,636920
11.6749,527210
11.6822,432604
11.6896,855925
11.697,964220
11.7044,457943
11.7117,170938
11.7191,129243
11.7265,134786
11.7339,176530
11.7413,355990
11.7486,709166
11.756,678620
11.7634,294800
11.7708,140952
11.7781,147842
11.7855,169015
11.7929,154263
11.8003,131595
11.8076,112532
11.815,111083
11.8224,107486
11.8298,99877
11.8371,96458
11.8445,111635
11.8519,120747
11.8593,110779
11.8667,124971
11.874,183694
11.8814,200397
11.8888,135700
11.8962,86809
11.9035,84272
11.9109,88348
11.9183,82175
11.9257,81953
11.933,95817
11.9404,114136
11.9478,114200
11.9552,99637
11.9625,99532
11.9699,96135
11.9773,85326
11.9847,81671
11.9921,83681
11.9994,81685
12.0068,81971
12.0142,84107
12.0216,79719
12.0289,77316
12.0363,78390
12.0437,85342
12.0511,104585
12.0584,102367
12.0658,80928
12.0732,72907
12.0806,75775
12.0879,80316
12.0953,84883
12.1027,83818
12.1101,87966
12.1174,92386
12.1248,95636
12.1322,108721
12.1396,101789
12.147,85205
12.1543,73444
12.1617,72823
12.1691,80214
12.1765,90433
12.1838,89154
12.1912,87813
12.1986,94715
12.206,94269
12.2133,82339
12.2207,69290
12.2281,67808
12.2355,70359
12.2428,73516
12.2502,79856
12.2576,92231
12.265,134007
12.2724,240658
12.2797,250042
12.2871,141121
12.2945,82706
12.3019,74879
12.3092,73702
12.3166,67346
12.324,67442
12.3314,71626
12.3387,75755
12.3461,81772
12.3535,82241
12.3609,82884
12.3682,79847
12.3756,78707
12.383,79157
12.3904,84327
12.3978,122259
12.4051,189073
12.4125,200570
12.4199,160793
12.4273,112419
12.4346,88131
12.442,74026
12.4494,73066
12.4568,138432
12.4641,330340
12.4715,369381
12.4789,188201
12.4863,128673
12.4936,135218
12.501,121150
12.5084,128239
12.5158,238854
12.5231,328825
12.5305,192739
12.5379,95431
12.5453,92067
12.5527,95774
12.56,78075
12.5674,63628
12.5748,59001
12.5822,60110
12.5895,65053
12.5969,80758
12.6043,85038
12.6117,65039
12.619,57124
12.6264,58778
12.6338,71126
12.6412,80183
12.6485,79471
12.6559,67218
12.6633,58673
12.6707,61135
12.6781,70966
12.6854,72172
12.6928,60255
12.7002,54671
12.7076,54592
12.7149,53112
12.7223,54662
12.7297,58330
12.7371,74731
12.7444,153501
12.7518,231648
12.7592,169566
12.7666,113423
12.7739,113893
12.7813,89134
12.7887,64053
12.7961,51319
12.8035,52492
12.8108,65919
12.8182,86966
12.8256,86881
12.833,68399
12.8403,55801
12.8477,50267
12.8551,47891
12.8625,49796
12.8698,50513
12.8772,55699
12.8846,61286
12.892,53880
12.8993,52516
12.9067,48576
12.9141,44350
12.9215,45289
12.9288,48385
12.9362,49436
12.9436,58596
12.951,93505
12.9584,139464
12.9657,134289
12.9731,83600
12.9805,53862
12.9879,46397
12.9952,45786
13.0026,46988
13.01,52054
13.0174,56704
13.0247,62606
13.0321,60020
13.0395,49345
13.0469,45743
13.0542,47189
13.0616,52952
13.069,54486
13.0764,48606
13.0838,47326
13.0911,43320
13.0985,41159
13.1059,46104
13.1133,48696
13.1206,46312
13.128,43012
13.1354,38817
13.1428,40395
13.1501,49524
13.1575,59869
13.1649,54056
13.1723,45992
13.1796,47936
13.187,66861
13.1944,100831
13.2018,132379
13.2092,110298
13.2165,58392
13.2239,39666
13.2313,39141
13.2387,47284
13.246,80650
13.2534,112030
13.2608,76560
13.2682,55304
13.2755,82156
13.2829,91505
13.2903,60629
13.2977,43266
13.305,41282
13.3124,37863
13.3198,34388
13.3272,36719
13.3346,43269
13.3419,47938
13.3493,42669
13.3567,37119
13.3641,36055
13.3714,35748
13.3788,39241
13.3862,42257
13.3936,71654
13.4009,160325
13.4083,178087
13.4157,95633
13.4231,52830
13.4304,42549
13.4378,38440
13.4452,35378
13.4526,35628
13.4599,35819
13.4673,34337
13.4747,37931
13.4821,38045
13.4895,33174
13.4968,32721
13.5042,33921
13.5116,34980
13.519,33055
13.5263,34583
13.5337,35571
13.5411,33399
13.5485,31264
13.5558,31578
13.5632,31644
13.5706,32200
13.578,31365
13.5853,30072
13.5927,30385
13.6001,31514
13.6075,30327
13.6149,29580
13.6222,29603
13.6296,29044
13.637,29155
13.6444,28938
13.6517,29875
13.6591,34390
13.6665,37930
13.6739,37356
13.6812,34256
13.6886,34895
13.696,37775
13.7034,36233
13.7107,33580
13.7181,31731
13.7255,30548
13.7329,30383
13.7403,30012
13.7476,28584
13.755,29314
13.7624,29283
13.7698,28339
13.7771,29051
13.7845,28102
13.7919,28898
13.7993,28805
13.8066,37848
13.814,67312
13.8214,93697
13.8288,73721
13.8361,49925
13.8435,40119
13.8509,38873
13.8583,37597
13.8656,34627
13.873,32263
13.8804,31497
13.8878,33193
13.8952,37376
13.9025,45460
13.9099,40980
13.9173,33635
13.9247,31389
13.932,32003
13.9394,39645
13.9468,47230
13.9542,42835
13.9615,35410
13.9689,31997
13.9763,30193
13.9837,29608
13.991,29754
13.9984,29459
14.0058,29096
14.0132,28314
14.0206,27705
14.0279,29039
14.0353,30135
14.0427,29467
14.0501,29026
14.0574,28556
14.0648,27731
14.0722,28663
14.0796,29823
14.0869,30924
14.0943,33460
14.1017,33026
14.1091,32123
14.1164,29135
14.1238,27568
14.1312,27146
14.1386,26472
14.146,26941
14.1533,26079
14.1607,27572
14.1681,27786
14.1755,28107
14.1828,28389
14.1902,28185
14.1976,27449
14.205,27331
14.2123,27944
14.2197,27689
14.2271,28676
14.2345,29862
14.2418,28907
14.2492,27397
14.2566,27402
14.264,27009
14.2713,27190
14.2787,27408
14.2861,26546
14.2935,27256
14.3009,27195
14.3082,28099
14.3156,27158
14.323,28464
14.3304,31829
14.3377,32348
14.3451,29637
14.3525,27775
14.3599,27423
14.3672,27770
14.3746,27530
14.382,26945
14.3894,26804
14.3967,27792
14.4041,27536
14.4115,26799
14.4189,27310
14.4263,26277
14.4336,26032
14.441,25901
14.4484,27120
14.4558,28049
14.4631,28602
14.4705,27976
14.4779,27192
14.4853,26959
14.4926,26214
14.5,26951
14.5074,26864
14.5148,26833
14.5221,26448
14.5295,26441
14.5369,26391
14.5443,27939
14.5517,27766
14.559,26460
14.5664,26425
14.5738,28301
14.5812,30086
14.5885,30007
14.5959,28067
14.6033,27144
14.6107,30029
14.618,31938
14.6254,30964
14.6328,28013
14.6402,27151
14.6475,26806
14.6549,26825
14.6623,27421
14.6697,27960
14.677,28488
14.6844,29402
14.6918,28399
14.6992,28990
14.7066,30011
14.7139,29983
14.7213,30107
14.7287,28209
14.7361,27837
14.7434,26742
14.7508,25175
14.7582,26824
14.7656,29767
14.7729,36674
14.7803,39231
14.7877,32896
14.7951,28353
14.8024,28368
14.8098,27580
14.8172,27419
14.8246,26893
14.832,26957
14.8393,25917
14.8467,26793
14.8541,26257
14.8615,26028
14.8688,27334
14.8762,26693
14.8836,26697
14.891,27134
14.8983,26552
14.9057,26236
14.9131,26408
14.9205,26344
14.9278,26968
14.9352,27586
14.9426,28691
14.95,27766
14.9574,26617
14.9647,26400
14.9721,26286
14.9795,26165
14.9869,27384
14.9942,26969
15.0016,26293
15.009,26755
15.0164,26916
15.0237,26360
15.0311,27035
15.0385,27565
15.0459,27827
15.0532,38305
15.0606,70616
15.068,74412
15.0754,51742
15.0828,39676
15.0901,35673
15.0975,33487
15.1049,31764
15.1123,31940
15.1196,30667
15.127,29991
15.1344,30741
15.1418,32129
15.1491,30750
15.1565,30227
15.1639,28091
15.1713,29248
15.1786,29929
15.186,28423
15.1934,28905
15.2008,29469
15.2081,29009
15.2155,29084
15.2229,28530
15.2303,28676
15.2377,29153
15.245,29867
15.2524,32054
15.2598,32964
15.2672,33566
15.2745,33277
15.2819,32000
15.2893,31140
15.2967,31291
15.304,30891
15.3114,31212
15.3188,30723
15.3262,31182
15.3335,32379
15.3409,32971
15.3483,32540
15.3557,33179
15.3631,33765
15.3704,35018
15.3778,34952
15.3852,34265
15.3926,33932
15.3999,32541
15.4073,32611
15.4147,31270
15.4221,31071
15.4294,29001
15.4368,30882
15.4442,30122
15.4516,30587
15.4589,29134
15.4663,30598
15.4737,30869
15.4811,30188
15.4885,30947
15.4958,30382
15.5032,30571
15.5106,29747
15.518,31275
15.5253,30026
15.5327,30514
15.5401,29604
15.5475,31096
15.5548,31138
15.5622,30917
15.5696,31530
15.577,32051
15.5843,32573
15.5917,33687
15.5991,34511
15.6065,35396
15.6138,34720
15.6212,35473
15.6286,37473
15.636,37821
15.6434,34609
15.6507,32203
15.6581,33493
15.6655,34930
15.6729,34767
15.6802,33541
15.6876,32768
15.695,33580
15.7024,32304
15.7097,32963
15.7171,32763
15.7245,32500
15.7319,32960
15.7392,32240
15.7466,33035
15.754,33289
15.7614,33026
15.7688,34506
15.7761,32806
15.7835,33538
15.7909,32892
15.7983,33108
15.8056,33347
15.813,33739
15.8204,33263
15.8278,33807
15.8351,33673
15.8425,33877
15.8499,34063
15.8573,34870
15.8646,34645
15.872,35875
15.8794,35172
15.8868,34784
15.8942,34373
15.9015,34607
15.9089,34698
15.9163,35762
15.9237,35716
15.931,36264
15.9384,36220
15.9458,35299
15.9532,35318
15.9605,34961
15.9679,35563
15.9753,34964
15.9827,35848
15.99,36037
15.9974,36006
16.0048,36323
16.0122,36513
16.0195,36829
16.0269,37232
16.0343,37817
16.0417,37892
16.0491,38460
16.0564,38266
16.0638,38267
16.0712,38435
16.0786,40121
16.0859,39050
16.0933,38679
16.1007,41066
16.108,40471
16.1154,39439
16.1228,38360
16.1302,38887
16.1376,38326
16.1449,37771
16.1523,38270
16.1597,38298
16.1671,37838
16.1745,38223
16.1818,38094
16.1892,38109
16.1966,38703
16.2039,42269
16.2113,44986
16.2187,45027
16.2261,42437
16.2335,41125
16.2408,39202
16.2482,39668
16.2556,38585
16.263,38790
16.2703,38704
16.2777,38961
16.2851,38845
16.2925,39273
16.2998,37861
16.3072,39363
16.3146,39388
16.322,39123
16.3294,39075
16.3367,38651
16.3441,39348
16.3515,38809
16.3589,39405
16.3662,39398
16.3736,38385
16.381,39691
16.3884,39731
16.3957,40167
16.4031,38416
16.4105,39792
16.4179,38670
16.4252,38635
16.4326,38778
16.44,38935
16.4474,38921
16.4548,38657
16.4621,39378
16.4695,40083
16.4769,41139
16.4842,39950
16.4916,40680
16.499,39958
16.5064,40944
16.5138,40233
16.5211,42306
16.5285,40692
16.5359,40955
16.5433,40592
16.5506,39623
16.558,40209
16.5654,39459
16.5728,38525
16.5802,40064
16.5875,39858
16.5949,39931
16.6023,38971
16.6096,39175
16.617,38917
16.6244,38796
16.6318,38646
16.6392,40167
16.6465,39916
16.6539,39624
16.6613,40189
16.6687,39682
16.676,40250
16.6834,39636
16.6908,40260
16.6982,40161
16.7055,41085
16.7129,39942
16.7203,39757
16.7277,38318
16.7351,38604
16.7424,37992
16.7498,39501
16.7572,38140
16.7646,38928
16.7719,38297
16.7793,38946
16.7867,39098
16.7941,39798
16.8014,41282
16.8088,43311
16.8162,41894
16.8236,41667
16.831,40386
16.8383,40076
16.8457,40928
16.8531,41112
16.8605,41375
16.8678,41504
16.8752,41715
16.8826,41692
16.8899,40526
16.8973,41197
16.9047,40916
16.9121,41821
16.9195,41603
16.9268,40693
16.9342,41951
16.9416,41763
16.949,43933
16.9563,42560
16.9637,43214
16.9711,42041
16.9785,42546
16.9858,41718
16.9932,44321
17.0006,47312
17.008,47515
17.0154,45128
17.0227,44285
17.0301,42368
17.0375,42003
17.0449,43367
17.0522,42956
17.0596,42071
17.067,42375
17.0744,42358
17.0817,42056
17.0891,43022
17.0965,41930
17.1039,41856
17.1112,41629
17.1186,42273
17.126,41655
17.1334,41380
17.1408,42264
17.1481,42164
17.1555,41586
17.1629,43012
17.1702,43251
17.1776,43361
17.185,44266
17.1924,46261
17.1998,45479
17.2071,45525
17.2145,44066
17.2219,41539
17.2293,41287
17.2367,40705
17.244,42174
17.2514,40548
17.2588,41385
17.2662,40210
17.2735,40854
17.2809,41743
17.2883,40627
17.2956,40582
17.303,40869
17.3104,41456
17.3178,41122
17.3252,41575
17.3325,41361
17.3399,41221
17.3473,39826
17.3547,40734
17.362,40003
17.3694,40613
17.3768,40308
17.3842,40331
17.3915,41123
17.3989,41324
17.4063,41027
17.4137,39826
17.4211,40473
17.4284,40992
17.4358,41090
17.4432,41319
17.4506,41594
17.4579,43311
17.4653,45045
17.4727,47101
17.4801,49307
17.4874,50382
