D:\Data GC-MS\2021\7 JULY\08-07-21\35125-21-3 LIQ YKK.D 08 Jul 21  12:30 pm
Start of data points
1.29372,4400585
1.30047,4332929
1.3072,4273204
1.31395,4275524
1.3207,4319161
1.32743,4423745
1.33418,4557148
1.34092,4691208
1.34767,4817657
1.3544,4868582
1.36115,4886813
1.3679,4859318
1.37463,4815064
1.38138,4653766
1.38812,4470198
1.39487,4243874
1.4016,3986583
1.40835,3745373
1.41508,3629990
1.42183,3485251
1.42858,3236495
1.43532,2998962
1.44207,2802663
1.4488,2633332
1.45555,2471346
1.46228,2340644
1.46903,2286210
1.47578,2188077
1.48252,2069341
1.48927,1980594
1.51012,5521108
1.5175,5243495
1.52488,5014779
1.53225,4810511
1.53963,4517968
1.547,4242935
1.55438,3976547
1.56175,3737758
1.56913,3505623
1.57652,3293935
1.58388,3089386
1.59127,2896610
1.59863,2708066
1.60602,2525458
1.6134,2356428
1.62077,2197234
1.62815,2038482
1.63552,1902668
1.6429,1758284
1.65027,1636890
1.65765,1528892
1.66503,1437181
1.6724,1325667
1.67978,1225744
1.68715,1169938
1.69453,1211715
1.70192,1505440
1.70928,1793496
1.71667,1734537
1.72403,1626308
1.73142,1507207
1.73878,1406145
1.74617,1313505
1.75355,1231648
1.76092,1152164
1.7683,1177338
1.77567,1153330
1.78305,1079176
1.79043,984830
1.7978,914684
1.80518,835403
1.81255,755809
1.81993,680875
1.8273,612016
1.83468,551709
1.84207,508015
1.84943,512010
1.85682,533890
1.86418,498137
1.87157,462628
1.87895,433087
1.88632,416489
1.8937,425483
1.90107,412019
1.90845,385843
1.91582,364916
1.9232,351038
1.93058,327539
1.93795,308122
1.94533,289092
1.9527,273232
1.96008,251975
1.96747,228834
1.97483,219077
1.98222,227895
1.98958,221542
1.99697,210639
2.00433,197777
2.01172,179825
2.0191,165939
2.02647,168967
2.03385,182988
2.04122,200490
2.0486,265696
2.05598,274153
2.06335,256677
2.07073,234058
2.0781,215636
2.08548,198765
2.09285,185346
2.10023,173359
2.10762,157734
2.11498,142297
2.12237,129266
2.12973,115172
2.13712,103142
2.14448,89796
2.15187,79573
2.15925,72763
2.16662,64405
2.174,60395
2.18137,53845
2.18875,49854
2.19613,48619
2.2035,70181
2.21088,95576
2.21825,99134
2.22563,93711
2.233,90812
2.24038,94162
2.24777,90886
2.25513,88853
2.26252,87469
2.26988,81830
2.27727,95890
2.28465,155980
2.29202,199269
2.2994,194389
2.30677,238099
2.31415,346170
2.32152,372226
2.3289,353532
2.33628,339880
2.34365,351937
2.35103,354706
2.3584,323002
2.36578,293766
2.37317,267416
2.38053,253682
2.38792,329593
2.39528,402501
2.40267,383467
2.41003,340450
2.41742,311476
2.4248,281343
2.43217,250605
2.43955,230159
2.44692,208292
2.4543,186183
2.46168,163877
2.46905,141751
2.47643,128097
2.4838,141330
2.49118,156682
2.49855,275134
2.50593,542234
2.51332,642943
2.52068,606745
2.52807,560222
2.53543,536981
2.54282,499199
2.5502,462771
2.55757,418258
2.56495,378449
2.57232,330849
2.5797,280260
2.58707,230065
2.59445,193035
2.60183,192816
2.6092,240666
2.61658,246889
2.62395,229623
2.63133,223913
2.63872,234489
2.64608,226664
2.65347,215683
2.66083,197676
2.66822,179604
2.67558,166205
2.68297,152853
2.69035,136006
2.69772,117153
2.7051,102914
2.71247,96539
2.71985,89551
2.72723,80076
2.7346,72818
2.74198,68783
2.74935,68390
2.75673,69855
2.7641,65542
2.77148,59968
2.77887,53617
2.78623,48969
2.79362,44064
2.80098,41776
2.80837,41827
2.81573,41507
2.82312,39377
2.8305,36597
2.83787,33847
2.84525,33448
2.85262,36447
2.86,47363
2.86738,54687
2.87475,70516
2.88213,96380
2.8895,102319
2.89688,97034
2.90425,95582
2.91163,115120
2.91902,128161
2.92638,129578
2.93377,161482
2.94113,177319
2.94852,162425
2.9559,149957
2.96327,138728
2.97065,130357
2.97802,125437
2.9854,119899
2.99277,106763
3.00015,90655
3.00753,75923
3.0149,66302
3.02228,58443
3.02965,55439
3.03703,54706
3.04442,58116
3.05178,60676
3.05917,58651
3.06653,54308
3.07392,50703
3.08128,46295
3.08867,42815
3.09605,38046
3.10342,35904
3.1108,32412
3.11817,37186
3.12555,75947
3.13293,167190
3.1403,213005
3.14768,203655
3.15505,197804
3.16243,197362
3.1698,188554
3.17718,167745
3.18457,143585
3.19193,125260
3.19932,140239
3.20668,183745
3.21407,188641
3.22145,169859
3.22882,166113
3.2362,181751
3.24357,187316
3.25095,173510
3.25832,152101
3.2657,133700
3.27308,115826
3.28045,99333
3.28783,93455
3.2952,123827
3.30258,150739
3.30997,183462
3.31733,413501
3.32472,974615
3.33208,1266288
3.33947,1202283
3.34683,1078727
3.35422,956189
3.3616,831452
3.36897,694921
3.37635,574836
3.38372,507737
3.3911,434355
3.39847,360770
3.40585,293367
3.41323,235658
3.4206,189365
3.42798,156920
3.43535,125643
3.44273,102017
3.45012,81013
3.45748,65810
3.46487,57779
3.47223,51725
3.47962,57231
3.48698,61352
3.49437,61532
3.50175,56871
3.50912,53632
3.5165,52726
3.52387,53538
3.53125,49854
3.53863,44413
3.546,41195
3.55338,38332
3.56075,35204
3.56813,33041
3.5755,32583
3.58288,38730
3.59027,45871
3.59763,48431
3.60502,48933
3.61238,53906
3.61977,57605
3.62715,58225
3.63452,58050
3.6419,59000
3.64927,55352
3.65665,54162
3.66402,50538
3.6714,49378
3.67878,48473
3.68615,59142
3.69353,88940
3.7009,108361
3.70828,108001
3.71567,99758
3.72303,89273
3.73042,79391
3.73778,66244
3.74517,53038
3.75253,45410
3.75992,41406
3.7673,37437
3.77467,34688
3.78205,34522
3.78942,40758
3.7968,54983
3.80418,64024
3.81155,62556
3.81893,60540
3.8263,53401
3.83368,45990
3.84105,40483
3.84843,36263
3.85582,32796
3.86318,35158
3.87057,35587
3.87793,34649
3.88532,33184
3.8927,30978
3.90007,29156
3.90745,27450
3.91482,28333
3.9222,28826
3.92957,27606
3.93695,28759
3.94433,32319
3.9517,35088
3.95908,35281
3.96645,33183
3.97383,31854
3.9812,28756
3.98858,29837
3.99597,32268
4.00333,33982
4.01072,34526
4.01808,34783
4.02547,35941
4.03285,39691
4.04022,42448
4.0476,41087
4.05497,38299
4.06235,36913
4.06972,35488
4.0771,32493
4.08448,30021
4.09185,31263
4.09923,38462
4.1066,52057
4.11398,64818
4.12137,65950
4.12873,64678
4.13612,60264
4.14348,54998
4.15087,47632
4.15823,39589
4.16562,35515
4.173,33219
4.18037,31025
4.18775,31964
4.19512,32331
4.2025,31531
4.20988,30521
4.21725,32421
4.22463,31024
4.232,31167
4.23938,32728
4.24675,34705
4.25413,34393
4.26152,34379
4.26888,31583
4.27627,30838
4.28363,29996
4.29102,30544
4.2984,29885
4.30577,30701
4.31315,29186
4.32052,28633
4.3279,26855
4.33527,26307
4.34265,25325
4.35003,24245
4.3574,24782
4.36478,30074
4.37215,33920
4.37953,37624
4.38692,37229
4.39428,36766
4.40167,38183
4.40903,40366
4.41642,38652
4.42378,44266
4.43117,117134
4.43855,277443
4.44592,362457
4.4533,343628
4.46067,268026
4.46805,203767
4.47543,157635
4.4828,118235
4.49018,85418
4.49755,59738
4.50493,45225
4.5123,36720
4.51968,34229
4.52707,44600
4.53443,151730
4.54182,565512
4.54918,1005057
4.55657,1129298
4.56393,1078364
4.57132,851358
4.5787,589951
4.58607,368064
4.59345,216324
4.60082,130316
4.6082,83982
4.61558,58470
4.62295,46505
4.63033,39878
4.6377,36762
4.64508,33392
4.65245,30828
4.65983,32228
4.66722,31554
4.67458,29960
4.68197,28949
4.68933,27601
4.69672,27796
4.7041,27286
4.71147,27727
4.71885,26877
4.72622,27464
4.7336,29472
4.74097,33338
4.74835,36639
4.75573,37597
4.7631,35622
4.77048,32791
4.77785,30675
4.78523,27612
4.79262,29561
4.79998,28667
4.80737,40850
4.81473,143317
4.82212,391754
4.82948,539229
4.83687,467152
4.84425,312669
4.85162,182256
4.859,107384
4.86637,69263
4.87375,48979
4.88113,40522
4.8885,47980
4.89588,61545
4.90325,58167
4.91063,44809
4.918,34200
4.92538,28124
4.93277,25017
4.94013,22199
4.94752,21905
4.95488,23780
4.96227,25615
4.96965,25214
4.97702,24931
4.9844,23812
4.99177,22478
4.99915,22667
5.00652,24583
5.0139,26282
5.02128,28425
5.02865,29924
5.03603,29887
5.0434,26474
5.05078,24283
5.05817,22150
5.06553,21864
5.07292,23562
5.08028,26427
5.08767,27962
5.09503,26734
5.10242,24883
5.1098,23620
5.11717,23256
5.12455,22692
5.13192,21371
5.1393,21702
5.14667,20731
5.15405,22058
5.16143,23388
5.1688,26780
5.17618,31421
5.18355,38463
5.19093,47136
5.19832,52948
5.20568,45302
5.21307,34652
5.22043,27198
5.22782,24632
5.23518,26042
5.24257,29564
5.24995,28287
5.25732,25279
5.2647,23194
5.27207,23306
5.27945,23037
5.28683,26019
5.2942,31712
5.30158,36406
5.30895,34187
5.31633,28885
5.3237,27830
5.33108,26720
5.33847,24387
5.34583,23553
5.35322,25450
5.36058,25799
5.36797,25858
5.37535,24767
5.38272,24051
5.3901,23485
5.39747,23583
5.40485,23918
5.41222,22946
5.4196,23714
5.42698,23067
5.43435,23832
5.44173,24129
5.4491,22406
5.45648,23198
5.46387,22771
5.47123,23499
5.47862,24166
5.48598,22416
5.49337,21855
5.50073,22018
5.50812,21469
5.5155,22288
5.52287,25730
5.53025,30838
5.53762,37077
5.545,58774
5.55238,97057
5.55975,104076
5.56713,71267
5.5745,42927
5.58188,31343
5.58925,32124
5.59663,32012
5.60402,34126
5.61138,39082
5.61877,47781
5.62613,92345
5.63352,262446
5.6409,385905
5.64827,280818
5.65565,145956
5.66302,95110
5.6704,124450
5.67777,177902
5.68515,146769
5.69253,83135
5.6999,46396
5.70728,33089
5.71465,29175
5.72203,49917
5.7294,138467
5.73678,238312
5.74417,194313
5.75153,95251
5.75892,46800
5.76628,33242
5.77367,29543
5.78105,27911
5.78842,26700
5.7958,26698
5.80317,26699
5.81055,26523
5.81792,26631
5.8253,28668
5.83268,41901
5.84005,96992
5.84743,150001
5.8548,119469
5.86218,65731
5.86957,40070
5.87693,31717
5.88432,28829
5.89168,26823
5.89907,24876
5.90643,24154
5.91382,24719
5.9212,25915
5.92857,26178
5.93595,24792
5.94332,25679
5.9507,24882
5.95808,26391
5.96545,28134
5.97283,29808
5.9802,28073
5.98758,25303
5.99495,26440
6.00233,26364
6.00972,31258
6.01708,108354
6.02447,407515
6.03183,625856
6.03922,411120
6.0466,156421
6.05397,59614
6.06135,49390
6.06872,53642
6.0761,38614
6.08347,29232
6.09085,25382
6.09823,24117
6.1056,23812
6.11298,24682
6.12035,24715
6.12773,24646
6.13512,22946
6.14248,23301
6.14987,22824
6.15723,22456
6.16462,21558
6.17198,22244
6.17937,25001
6.18675,28663
6.19412,27470
6.2015,28358
6.20887,29771
6.21625,29116
6.22363,24372
6.231,22283
6.23838,22825
6.24575,21369
6.25313,21425
6.2605,21995
6.26788,24197
6.27527,26440
6.28263,24055
6.29002,22576
6.29738,22489
6.30477,25368
6.31213,38925
6.31952,46375
6.3269,36311
6.33427,38024
6.34165,91949
6.34902,146041
6.3564,110405
6.36378,52585
6.37115,34307
6.37853,31764
6.3859,29126
6.39328,23881
6.40065,23534
6.40803,24346
6.41542,23666
6.42278,23156
6.43017,22243
6.43753,21561
6.44492,21578
6.4523,24841
6.45967,31902
6.46705,33161
6.47442,27723
6.4818,26820
6.48917,27428
6.49655,30078
6.50393,45618
6.5113,72772
6.51868,73065
6.52605,47203
6.53343,30492
6.54082,24842
6.54818,23338
6.55557,21277
6.56293,21072
6.57032,20831
6.57768,20239
6.58507,20448
6.59245,21762
6.59982,22104
6.6072,22832
6.61457,25743
6.62195,40503
6.62933,54885
6.6367,44552
6.64408,29149
6.65145,31661
6.65883,59865
6.6662,93836
6.67358,81547
6.68097,53392
6.68833,42814
6.69572,41954
6.70308,36025
6.71047,33193
6.71785,59794
6.72522,128392
6.7326,184838
6.73997,126390
6.74735,53896
6.75472,33505
6.7621,29761
6.76948,28609
6.77685,39759
6.78423,58978
6.7916,46942
6.79898,33301
6.80637,29953
6.81373,26461
6.82112,27816
6.82848,39088
6.83587,49885
6.84323,45563
6.85062,50685
6.858,47664
6.86537,30186
6.87275,24712
6.88012,24706
6.8875,22943
6.89487,22650
6.90225,23619
6.90963,28285
6.917,34185
6.92438,34609
6.93175,48671
6.93913,93825
6.94652,97492
6.95388,53890
6.96127,43131
6.96863,80516
6.97602,102561
6.98338,61020
6.99077,31047
6.99815,24798
7.00552,24326
7.0129,26372
7.02027,36398
7.02765,58143
7.03503,120363
7.0424,179069
7.04978,115181
7.05715,50305
7.06453,42441
7.0719,66832
7.07928,75201
7.08667,51623
7.09403,39708
7.10142,37754
7.10878,32211
7.11617,29929
7.12355,32303
7.13092,30064
7.1383,28635
7.14567,27830
7.15305,30594
7.16042,65070
7.1678,129546
7.17518,108571
7.18255,44183
7.18993,29052
7.1973,32407
7.20468,36186
7.21207,46629
7.21943,50483
7.22682,42785
7.23418,32882
7.24157,27358
7.24893,36272
7.25632,65319
7.2637,68463
7.27107,42747
7.27845,33017
7.28582,37780
7.2932,40255
7.30058,40322
7.30795,42181
7.31533,40054
7.3227,49600
7.33008,56945
7.33745,53478
7.34483,56392
7.35222,44582
7.35958,33438
7.36697,34343
7.37433,39631
7.38172,105010
7.3891,229845
7.39647,210215
7.40385,97849
7.41122,70487
7.4186,126516
7.42597,313889
7.43335,338856
7.44073,157317
7.4481,84450
7.45548,64948
7.46285,55096
7.47023,51966
7.4776,39877
7.48498,38674
7.49237,44639
7.49973,45885
7.50712,39321
7.51448,35470
7.52187,49800
7.52925,73374
7.53662,61857
7.544,43415
7.55137,36123
7.55875,37242
7.56612,54630
7.5735,92867
7.58088,91560
7.58825,61827
7.59563,66121
7.603,79976
7.61038,151744
7.61777,203992
7.62513,127093
7.63252,70100
7.63988,58491
7.64727,128536
7.65463,300655
7.66202,322176
7.6694,178377
7.67677,99846
7.68415,76570
7.69152,75093
7.6989,87663
7.70628,76666
7.71365,62305
7.72103,91449
7.7284,146283
7.73578,197584
7.74315,314286
7.75053,503263
7.75792,523809
7.76528,407113
7.77267,316758
7.78003,236780
7.78742,218161
7.7948,121010
7.80217,83857
7.80955,94435
7.81692,136483
7.8243,273046
7.83167,426944
7.83905,414753
7.84643,203779
7.8538,92960
7.86118,60160
7.86855,67553
7.87593,105227
7.88332,156824
7.89068,165159
7.89807,288201
7.90543,458352
7.91282,290101
7.92018,105555
7.92757,73629
7.93495,74485
7.94232,72098
7.9497,63488
7.95707,58145
7.96445,76898
7.97183,148351
7.9792,282168
7.98658,245054
7.99395,113768
8.00133,73852
8.0087,62496
8.01608,51390
8.02347,45549
8.03083,45866
8.03822,55799
8.04558,59171
8.05297,54941
8.06033,56441
8.06772,64864
8.0751,63128
8.08247,61818
8.08985,86244
8.09722,162674
8.1046,271613
8.11198,270298
8.11935,207909
8.12673,213751
8.1341,296123
8.14148,384522
8.14885,560234
8.15623,697162
8.16362,765817
8.17098,644873
8.17837,325723
8.18573,233161
8.19312,508604
8.2005,999966
8.20787,985534
8.21525,522527
8.22262,422482
8.23,489205
8.23737,495517
8.24475,319211
8.25213,128498
8.2595,95342
8.26688,98878
8.27425,85740
8.28163,89698
8.28902,104200
8.29638,125064
8.30377,109645
8.31113,141507
8.31852,357175
8.32588,519641
8.33327,354597
8.34065,156401
8.34802,89766
8.3554,73686
8.36277,106836
8.37015,152997
8.37753,131269
8.3849,107867
8.39228,107144
8.39965,137846
8.40703,201677
8.4144,229148
8.42178,164156
8.42917,93647
8.43653,75422
8.44392,73130
8.45128,93674
8.45867,199494
8.46605,355888
8.47342,334993
8.4808,209348
8.48817,135113
8.49555,121852
8.50292,114045
8.5103,80653
8.51768,74213
8.52505,91354
8.53243,140304
8.5398,172852
8.54718,115995
8.55457,80077
8.56193,96650
8.56932,119816
8.57668,142499
8.58407,281167
8.59143,534225
8.59882,624851
8.6062,411775
8.61357,163004
8.62095,92367
8.62832,96998
8.6357,128693
8.64307,176153
8.65045,258468
8.65783,293001
8.6652,261606
8.67258,172588
8.67995,144036
8.68733,157505
8.69472,189617
8.70208,270370
8.70947,234366
8.71683,177037
8.72422,234141
8.73158,231350
8.73897,226517
8.74635,275939
8.75372,264232
8.7611,390961
8.76847,719402
8.77585,611981
8.78323,257954
8.7906,109544
8.79798,91566
8.80535,128756
8.81273,175109
8.8201,262731
8.82748,363151
8.83487,269664
8.84223,151883
8.84962,108464
8.85698,102305
8.86437,111541
8.87175,137884
8.87912,219978
8.8865,426011
8.89387,609932
8.90125,468808
8.90862,241415
8.916,142562
8.92338,126952
8.93075,141114
8.93813,230274
8.9455,353583
8.95288,302053
8.96027,166905
8.96763,109005
8.97502,136418
8.98238,167755
8.98977,181896
8.99713,167452
9.00452,152321
9.0119,149881
9.01927,168613
9.02665,202501
9.03402,210700
9.0414,211375
9.04878,265564
9.05615,237391
9.06353,129115
9.0709,117210
9.07828,226679
9.08565,274117
9.09303,167583
9.10042,113117
9.10778,148126
9.11517,182003
9.12253,147242
9.12992,111574
9.1373,113926
9.14467,152515
9.15205,217719
9.15942,354006
9.1668,682891
9.17417,679943
9.18155,355899
9.18893,259071
9.1963,207655
9.20368,127718
9.21105,99973
9.21843,100876
9.22582,102277
9.23318,104999
9.24057,170768
9.24793,642960
9.25532,1608386
9.26268,1592660
9.27007,678670
9.27745,218333
9.28482,134116
9.2922,123125
9.29957,104388
9.30695,107153
9.31432,123347
9.3217,146649
9.32908,148683
9.33645,112195
9.34383,94215
9.3512,99883
9.35858,116066
9.36597,118190
9.37333,108233
9.38072,89222
9.38808,79287
9.39547,152085
9.40283,466300
9.41022,823220
9.4176,629043
9.42497,323225
9.43235,184169
9.43972,107790
9.4471,117750
9.45448,166654
9.46185,164378
9.46923,157141
9.4766,169380
9.48398,157828
9.49135,129908
9.49873,143226
9.50612,187921
9.51348,185440
9.52087,133953
9.52823,93221
9.53562,81044
9.543,83188
9.55037,95368
9.55775,100275
9.56512,94636
9.5725,96236
9.57987,104410
9.58725,115597
9.59463,122477
9.602,142373
9.60938,131004
9.61675,125417
9.62413,153782
9.63152,183302
9.63888,170618
9.64627,156555
9.65363,152099
9.66102,144665
9.66838,138071
9.67577,132781
9.68315,125788
9.69052,122520
9.6979,150157
9.70527,156953
9.71265,125690
9.72003,110352
9.7274,100481
9.73478,92114
9.74215,101876
9.74953,149750
9.7569,184137
9.76428,142554
9.77167,98819
9.77903,91184
9.78642,94684
9.79378,105064
9.80117,137391
9.80855,152258
9.81592,158759
9.8233,147653
9.83067,133626
9.83805,134330
9.84542,117321
9.8528,142212
9.86018,225458
9.86755,187661
9.87493,111543
9.8823,98920
9.88968,101424
9.89705,101079
9.90443,107462
9.91182,114250
9.91918,111021
9.92657,105442
9.93393,97621
9.94132,89975
9.9487,93431
9.95607,89719
9.96345,94023
9.97082,100558
9.9782,107850
9.98557,104351
9.99295,98407
10.0003,97116
10.0077,103355
10.0151,114321
10.0225,116699
10.0298,109839
10.0372,108148
10.0446,109601
10.052,104713
10.0593,107896
10.0667,175934
10.0741,477430
10.0815,644662
10.0889,373646
10.0962,239890
10.1036,234552
10.111,175284
10.1184,121272
10.1257,100596
10.1331,104539
10.1405,134080
10.1479,178212
10.1552,222175
10.1626,211858
10.17,170297
10.1774,148931
10.1847,119310
10.1921,103119
10.1995,111371
10.2069,124667
10.2143,117881
10.2216,105899
10.229,101599
10.2364,100781
10.2438,118428
10.2511,174183
10.2585,241137
10.2659,236571
10.2733,247782
10.2806,226555
10.288,156113
10.2954,123722
10.3028,115878
10.3101,109828
10.3175,115285
10.3249,117483
10.3323,112849
10.3396,115841
10.347,116734
10.3544,121434
10.3618,131535
10.3692,175205
10.3765,285352
10.3839,372801
10.3913,285505
10.3987,171793
10.406,123251
10.4134,147732
10.4208,236210
10.4282,246646
10.4355,177708
10.4429,129225
10.4503,113822
10.4577,124408
10.465,135577
10.4724,127200
10.4798,126122
10.4872,144104
10.4946,151187
10.5019,154312
10.5093,146338
10.5167,143798
10.5241,148293
10.5314,142159
10.5388,115663
10.5462,132975
10.5536,192165
10.5609,245540
10.5683,251532
10.5757,221398
10.5831,182282
10.5904,204252
10.5978,315938
10.6052,297076
10.6126,172596
10.62,140363
10.6273,172450
10.6347,169025
10.6421,128877
10.6495,109917
10.6568,104980
10.6642,99901
10.6716,91980
10.679,104714
10.6863,161459
10.6937,208342
10.7011,177384
10.7085,132116
10.7158,109754
10.7232,102252
10.7306,101889
10.738,107250
10.7453,110205
10.7527,103121
10.7601,111668
10.7675,129304
10.7749,123641
10.7822,123332
10.7896,130575
10.797,120280
10.8044,104053
10.8117,94801
10.8191,91107
10.8265,93139
10.8339,90524
10.8412,89560
10.8486,98259
10.856,106931
10.8634,113309
10.8707,114700
10.8781,105989
10.8855,103004
10.8929,111981
10.9003,108329
10.9076,98449
10.915,111161
10.9224,191330
10.9298,444027
10.9371,746952
10.9445,520961
10.9519,198065
10.9593,142426
10.9666,145206
10.974,146070
10.9814,134039
10.9888,125835
10.9961,126763
11.0035,141851
11.0109,158970
11.0183,157732
11.0257,132796
11.033,118326
11.0404,117822
11.0478,116178
11.0552,113225
11.0625,112710
11.0699,114449
11.0773,112089
11.0847,107651
11.092,105958
11.0994,123235
11.1068,149803
11.1142,151548
11.1215,129274
11.1289,109951
11.1363,107562
11.1437,103642
11.151,97133
11.1584,98164
11.1658,100813
11.1732,107068
11.1806,117736
11.1879,117101
11.1953,102162
11.2027,87496
11.2101,80522
11.2174,94704
11.2248,112180
11.2322,104969
11.2396,102500
11.2469,126135
11.2543,144176
11.2617,143187
11.2691,156485
11.2764,167695
11.2838,140690
11.2912,111445
11.2986,103028
11.306,116880
11.3133,130742
11.3207,145948
11.3281,184848
11.3355,188348
11.3428,135029
11.3502,119316
11.3576,149593
11.365,166937
11.3723,143906
11.3797,108313
11.3871,93210
11.3945,101976
11.4018,124830
11.4092,155409
11.4166,132623
11.424,119159
11.4314,133645
11.4387,141320
11.4461,168399
11.4535,236052
11.4609,248787
11.4682,176484
11.4756,126549
11.483,124593
11.4904,145143
11.4977,152859
11.5051,137535
11.5125,142778
11.5199,146307
11.5272,114195
11.5346,101011
11.542,101110
11.5494,103155
11.5568,102564
11.5641,98219
11.5715,107430
11.5789,116905
11.5863,120101
11.5936,131192
11.601,132964
11.6084,112981
11.6158,108957
11.6231,114617
11.6305,107605
11.6379,108278
11.6453,104611
11.6526,112853
11.66,116931
11.6674,118095
11.6748,111295
11.6821,99445
11.6895,90051
11.6969,91804
11.7043,96789
11.7117,101928
11.719,102873
11.7264,108849
11.7338,150163
11.7412,386072
11.7485,737873
11.7559,548782
11.7633,221443
11.7707,152649
11.778,159377
11.7854,141646
11.7928,139958
11.8002,162854
11.8075,165837
11.8149,143876
11.8223,130981
11.8297,136713
11.8371,134077
11.8444,115265
11.8518,105352
11.8592,123909
11.8666,156495
11.8739,164573
11.8813,141774
11.8887,130621
11.8961,141991
11.9034,161234
11.9108,150665
11.9182,122710
11.9256,119514
11.9329,144533
11.9403,159152
11.9477,153928
11.9551,145260
11.9625,131007
11.9698,133077
11.9772,130965
11.9846,128903
11.992,115713
11.9993,107648
12.0067,113847
12.0141,125881
12.0215,126371
12.0288,110321
12.0362,94816
12.0436,97859
12.051,106052
12.0583,113621
12.0657,117728
12.0731,119898
12.0805,135920
12.0878,163706
12.0952,196219
12.1026,253686
12.11,333890
12.1174,298377
12.1247,180392
12.1321,113954
12.1395,122566
12.1469,133526
12.1542,119386
12.1616,102963
12.169,108175
12.1764,118068
12.1837,127872
12.1911,143012
12.1985,134867
12.2059,108560
12.2132,103052
12.2206,114105
12.228,138222
12.2354,162804
12.2428,181394
12.2501,171714
12.2575,155127
12.2649,136729
12.2723,133117
12.2796,131810
12.287,123204
12.2944,141503
12.3018,156029
12.3091,139286
12.3165,121945
12.3239,110652
12.3313,108454
12.3386,106944
12.346,110509
12.3534,110661
12.3608,116410
12.3682,116254
12.3755,113732
12.3829,116997
12.3903,116140
12.3977,111957
12.405,116276
12.4124,126314
12.4198,137408
12.4272,143503
12.4345,124496
12.4419,111003
12.4493,106258
12.4567,117996
12.464,111281
12.4714,104485
12.4788,102312
12.4862,105917
12.4935,109587
12.5009,129093
12.5083,263322
12.5157,612591
12.5231,650128
12.5304,364068
12.5378,391475
12.5452,492801
12.5526,377563
12.5599,213014
12.5673,147780
12.5747,144998
12.5821,138893
12.5894,142578
12.5968,144522
12.6042,144353
12.6116,131607
12.6189,120853
12.6263,126784
12.6337,139570
12.6411,137951
12.6485,123698
12.6558,113380
12.6632,118319
12.6706,141854
12.678,159220
12.6853,155052
12.6927,152063
12.7001,149994
12.7075,142225
12.7148,142079
12.7222,138093
12.7296,148933
12.737,163583
12.7443,150305
12.7517,132322
12.7591,125357
12.7665,127103
12.7739,124010
12.7812,125682
12.7886,128592
12.796,126930
12.8034,133097
12.8107,144593
12.8181,153728
12.8255,175111
12.8329,192551
12.8402,179950
12.8476,152138
12.855,139131
12.8624,144121
12.8697,142222
12.8771,163588
12.8845,184443
12.8919,185193
12.8992,161147
12.9066,130680
12.914,118031
12.9214,117081
12.9288,132664
12.9361,164320
12.9435,163560
12.9509,132251
12.9583,126717
12.9656,128982
12.973,134178
12.9804,169337
12.9878,177976
12.9951,155786
13.0025,133816
13.0099,119356
13.0173,118756
13.0246,132931
13.032,154390
13.0394,166935
13.0468,155805
13.0542,124424
13.0615,120256
13.0689,123954
13.0763,127657
13.0837,125376
13.091,123350
13.0984,124908
13.1058,123520
13.1132,126748
13.1205,138010
13.1279,143957
13.1353,137207
13.1427,131193
13.15,124175
13.1574,119302
13.1648,120979
13.1722,130929
13.1796,129314
13.1869,127546
13.1943,132138
13.2017,130882
13.2091,119878
13.2164,109418
13.2238,109457
13.2312,128896
13.2386,250415
13.2459,556519
13.2533,640436
13.2607,315978
13.2681,142868
13.2754,126741
13.2828,155825
13.2902,261681
13.2976,370666
13.305,343236
13.3123,217500
13.3197,135342
13.3271,134617
13.3345,150587
13.3418,161798
13.3492,153061
13.3566,134215
13.364,120138
13.3713,118100
13.3787,122628
13.3861,127675
13.3935,124622
13.4008,124877
13.4082,116524
13.4156,118532
13.423,126307
13.4303,126612
13.4377,115787
13.4451,113581
13.4525,118300
13.4599,114938
13.4672,120087
13.4746,127438
13.482,135023
13.4894,126112
13.4967,120409
13.5041,130187
13.5115,151324
13.5189,165095
13.5262,168543
13.5336,164894
13.541,161036
13.5484,158280
13.5557,172288
13.5631,170190
13.5705,154130
13.5779,146519
13.5853,146809
13.5926,149687
13.6,153845
13.6074,143998
13.6148,124789
13.6221,118085
13.6295,113780
13.6369,117888
13.6443,129092
13.6516,137008
13.659,131306
13.6664,121630
13.6738,115998
13.6811,115337
13.6885,137029
13.6959,153412
13.7033,139988
13.7107,131710
13.718,129305
13.7254,131616
13.7328,129415
13.7402,127028
13.7475,150147
13.7549,152540
13.7623,138019
13.7697,136979
13.777,131398
13.7844,114409
13.7918,112945
13.7992,115048
13.8065,116619
13.8139,114466
13.8213,111625
13.8287,112989
13.836,120166
13.8434,123111
13.8508,120254
13.8582,128328
13.8656,151823
13.8729,168912
13.8803,160365
13.8877,137206
13.8951,127456
13.9024,120945
13.9098,123163
13.9172,120996
13.9246,119221
13.9319,169000
13.9393,417304
13.9467,598584
13.9541,363913
13.9614,164573
13.9688,117442
13.9762,112222
13.9836,109691
13.991,110033
13.9983,112183
14.0057,121841
14.0131,135069
14.0205,131893
14.0278,124989
14.0352,114564
14.0426,112378
14.05,110510
14.0573,118327
14.0647,122751
14.0721,113524
14.0795,110599
14.0868,115277
14.0942,113690
14.1016,106511
14.109,108784
14.1164,117565
14.1237,140386
14.1311,141618
14.1385,126296
14.1459,113078
14.1532,113798
14.1606,137622
14.168,166496
14.1754,160199
14.1827,138403
14.1901,129816
14.1975,130788
14.2049,144502
14.2122,144985
14.2196,137015
14.227,132075
14.2344,131390
14.2417,128165
14.2491,122373
14.2565,114959
14.2639,117328
14.2713,125998
14.2786,129180
14.286,128330
14.2934,135096
14.3008,133461
14.3081,124180
14.3155,133392
14.3229,145151
14.3303,144985
14.3376,134197
14.345,124755
14.3524,134310
14.3598,142009
14.3671,126437
14.3745,115990
14.3819,112183
14.3893,108463
14.3967,106115
14.404,124589
14.4114,154473
14.4188,137374
14.4262,109886
14.4335,105220
14.4409,111402
14.4483,130380
14.4557,150777
14.463,133447
14.4704,117276
14.4778,113816
14.4852,111588
14.4925,115762
14.4999,117311
14.5073,118217
14.5147,109832
14.5221,106781
14.5294,113794
14.5368,121257
14.5442,117248
14.5516,108519
14.5589,105313
14.5663,116254
14.5737,234146
14.5811,500232
14.5884,435566
14.5958,185453
14.6032,120926
14.6106,113231
14.6179,114684
14.6253,109140
14.6327,106789
14.6401,106146
14.6474,108619
14.6548,111344
14.6622,115429
14.6696,114016
14.677,114640
14.6843,111462
14.6917,110378
14.6991,116573
14.7065,120956
14.7138,112892
14.7212,110524
14.7286,106713
14.736,102037
14.7433,102364
14.7507,98119
14.7581,98325
14.7655,100355
14.7728,105975
14.7802,107154
14.7876,103605
14.795,114376
14.8024,138565
14.8097,147841
14.8171,137953
14.8245,125008
14.8319,118655
14.8392,117566
14.8466,124219
14.854,132523
14.8614,134519
14.8687,131444
14.8761,122443
14.8835,125173
14.8909,127912
14.8982,123444
14.9056,132099
14.913,129248
14.9204,116731
14.9278,111445
14.9351,119239
14.9425,139587
14.9499,138124
14.9573,141822
14.9646,139520
14.972,129384
14.9794,125838
14.9868,154983
14.9941,176454
15.0015,160331
15.0089,146844
15.0163,123880
15.0236,115407
15.031,113259
15.0384,120464
15.0458,127044
15.0532,136799
15.0605,120860
15.0679,114856
15.0753,118949
15.0827,119440
15.09,117661
15.0974,115438
15.1048,113096
15.1122,109630
15.1195,105982
15.1269,132247
15.1343,324834
15.1417,472326
15.149,258757
15.1564,133713
15.1638,114686
15.1712,108328
15.1785,107723
15.1859,107833
15.1933,102920
15.2007,103128
15.2081,108471
15.2154,114864
15.2228,117343
15.2302,107157
15.2376,103902
15.2449,103712
15.2523,105094
15.2597,107517
15.2671,107026
15.2744,114957
15.2818,119967
15.2892,118709
15.2966,114770
15.3039,109653
15.3113,105021
15.3187,109409
15.3261,121716
15.3335,131690
15.3408,127088
15.3482,120117
15.3556,122332
15.363,121477
15.3703,116418
15.3777,106920
15.3851,105339
15.3925,109969
15.3998,107833
15.4072,107251
15.4146,108078
15.422,110856
15.4293,117943
15.4367,113087
15.4441,109004
15.4515,119864
15.4589,133190
15.4662,125687
15.4736,112868
15.481,112355
15.4884,105236
15.4957,107424
15.5031,114040
15.5105,111310
15.5179,111830
15.5252,113794
15.5326,118657
15.54,114983
15.5474,109627
15.5547,105548
15.5621,102891
15.5695,108270
15.5769,120883
15.5842,116736
15.5916,107265
15.599,101249
15.6064,100776
15.6138,101345
15.6211,122516
15.6285,265522
15.6359,371530
15.6433,213589
15.6506,121433
15.658,111496
15.6654,114774
15.6728,116470
15.6801,121531
15.6875,117987
15.6949,116214
15.7023,114949
15.7096,113388
15.717,115414
15.7244,113208
15.7318,109435
15.7392,106975
15.7465,106518
15.7539,102930
15.7613,104498
15.7687,115256
15.776,125189
15.7834,125690
15.7908,121173
15.7982,129067
15.8055,125871
15.8129,120784
15.8203,117861
15.8277,112494
15.835,109852
15.8424,107547
15.8498,107173
15.8572,105712
15.8646,106523
15.8719,102165
15.8793,105410
15.8867,110087
15.8941,113236
15.9014,111590
15.9088,108713
15.9162,117222
15.9236,116809
15.9309,105575
15.9383,105924
15.9457,105272
15.9531,107209
15.9604,113806
15.9678,110067
15.9752,109422
15.9826,109903
15.9899,109389
15.9973,111805
16.0047,112016
16.0121,107707
16.0194,106038
16.0268,107073
16.0342,111001
16.0416,112896
16.049,116619
16.0563,106889
16.0637,109749
16.0711,178625
16.0785,300238
16.0858,236431
16.0932,135998
16.1006,115321
16.108,110527
16.1153,112086
16.1227,109858
16.1301,112553
16.1375,117230
16.1449,113286
16.1522,106531
16.1596,103787
16.167,102795
16.1744,102351
16.1817,103987
16.1891,100411
16.1965,99093
16.2038,101624
16.2112,106142
16.2186,111051
16.226,117656
16.2334,121392
16.2407,114720
16.2481,110085
16.2555,109670
16.2629,109996
16.2703,111903
16.2776,110065
16.285,108436
16.2924,106753
16.2998,107003
16.3071,108083
16.3145,108095
16.3219,110740
16.3292,116735
16.3366,117512
16.344,117169
16.3514,119653
16.3588,119127
16.3661,114482
16.3735,107646
16.3809,107005
16.3883,106730
16.3956,108039
16.403,110117
16.4104,105810
16.4178,101969
16.4251,101703
16.4325,101863
16.4399,98108
16.4473,98515
16.4547,98926
16.462,99360
16.4694,97340
16.4768,97149
16.4842,96986
16.4915,97676
16.4989,99542
16.5063,105055
16.5137,135572
16.521,185561
16.5284,164645
16.5358,109100
16.5432,95651
16.5506,97426
16.5579,99750
16.5653,96831
16.5727,95519
16.5801,93662
16.5874,93264
16.5948,92892
16.6022,91271
16.6095,89597
16.6169,89259
16.6243,88962
16.6317,84556
16.6391,85666
16.6464,85397
16.6538,85514
16.6612,86629
16.6686,88757
16.676,91204
16.6833,91478
16.6907,91909
16.6981,88405
16.7054,90956
16.7128,85189
16.7202,82556
16.7276,83310
16.735,83429
16.7423,80929
16.7497,80509
16.7571,78880
16.7645,77327
16.7718,78425
16.7792,81882
16.7866,80219
16.794,82879
16.8013,82613
16.8087,82630
16.8161,86480
16.8235,82807
16.8309,82439
16.8382,80473
16.8456,79047
16.853,81045
16.8604,81624
16.8677,82971
16.8751,83537
16.8825,81017
16.8899,78077
16.8972,78650
16.9046,77391
16.912,78854
16.9194,80848
16.9267,81325
16.9341,80421
16.9415,81261
16.9489,84148
16.9563,81402
16.9636,81605
16.971,79854
16.9784,81234
16.9857,84444
16.9931,95470
17.0005,115326
17.0079,106254
17.0153,88835
17.0226,83948
17.03,79229
17.0374,79361
17.0448,77915
17.0521,76792
17.0595,76797
17.0669,76520
17.0743,76517
17.0817,77227
17.089,77947
17.0964,80034
17.1038,82605
17.1111,80015
17.1185,75505
17.1259,73302
17.1333,71435
17.1407,70603
17.148,70564
17.1554,68815
17.1628,71277
17.1702,72820
17.1775,71318
17.1849,73116
17.1923,73122
17.1997,71162
17.207,68300
17.2144,67975
17.2218,67938
17.2292,66039
17.2366,66846
17.2439,68218
17.2513,67877
17.2587,69254
17.2661,69870
17.2734,70868
17.2808,70711
17.2882,69371
17.2956,69241
17.3029,69018
17.3103,69828
17.3177,69641
17.3251,73770
17.3324,72632
17.3398,70837
17.3472,70205
17.3546,70128
17.362,69508
17.3693,70123
17.3767,70452
17.3841,72506
17.3914,69182
17.3988,69455
17.4062,70189
17.4136,70532
17.421,70792
17.4283,70730
17.4357,70834
17.4431,74050
17.4505,75726
17.4578,77641
17.4652,76896
17.4726,81300
17.48,82546
17.4873,82306
