D:\Data GC-MS\2021\7 JULY\22-07-21\35434-21-1-SPME-YA.D 22 Jul 21  11:23 am
Start of data points
1.29388,3338
1.30063,3169
1.30738,3464
1.31412,3357
1.32087,3405
1.3276,4630
1.33435,8443
1.34108,14983
1.34783,23070
1.35457,32065
1.36132,40753
1.36807,49199
1.3748,58033
1.38155,65651
1.38828,72437
1.39503,77977
1.40177,83019
1.40852,88185
1.41527,91732
1.422,94978
1.42875,97548
1.43548,99945
1.44223,102414
1.44897,103461
1.45572,104778
1.46247,106436
1.4692,106276
1.47595,105544
1.48268,105352
1.48943,105823
1.5103,392891
1.51767,389617
1.52505,387771
1.53242,384851
1.5398,379955
1.54717,376519
1.55455,369890
1.56193,366912
1.5693,362361
1.57668,361266
1.58405,351331
1.59143,349849
1.59882,348896
1.60618,341908
1.61357,337863
1.62093,331761
1.62832,329425
1.63568,324705
1.64307,320549
1.65045,314152
1.65782,311323
1.6652,308309
1.67257,303940
1.67995,298221
1.68733,293169
1.6947,291167
1.70208,284686
1.70945,282666
1.71683,283181
1.7242,275309
1.73158,272814
1.73897,269758
1.74633,267018
1.75372,261526
1.76108,256490
1.76847,252581
1.77583,249626
1.78322,247996
1.7906,245915
1.79797,241220
1.80535,237654
1.81272,235493
1.8201,232082
1.82748,226270
1.83485,226472
1.84223,223946
1.8496,220637
1.85698,216926
1.86435,214827
1.87173,211432
1.87912,209593
1.88648,205814
1.89387,204821
1.90123,204436
1.90862,200615
1.916,196395
1.92337,193832
1.93075,192188
1.93812,193451
1.9455,189195
1.95287,184608
1.96025,185360
1.96763,183206
1.975,180895
1.98238,177722
1.98975,174123
1.99713,174015
2.00452,171640
2.01188,170759
2.01927,168735
2.02663,166348
2.03402,163871
2.04138,163227
2.04877,161560
2.05615,158167
2.06352,159930
2.0709,155820
2.07827,155342
2.08565,152529
2.09303,150940
2.1004,149356
2.10778,147245
2.11515,146402
2.12253,142558
2.1299,141315
2.13728,140972
2.14467,140623
2.15203,138563
2.15942,137161
2.16678,134157
2.17417,134302
2.18155,132670
2.18892,131336
2.1963,130363
2.20367,129772
2.21105,127150
2.21842,126584
2.2258,124644
2.23318,124083
2.24055,122194
2.24793,121296
2.2553,120288
2.26268,118215
2.27007,118182
2.27743,115566
2.28482,116975
2.29218,113989
2.29957,113329
2.30693,111229
2.31432,110961
2.3217,110002
2.32907,109799
2.33645,108539
2.34382,106160
2.3512,105099
2.35858,105043
2.36595,103964
2.37333,103974
2.3807,103338
2.38808,101695
2.39545,100003
2.40283,100686
2.41022,98457
2.41758,100329
2.42497,96856
2.43233,97246
2.43972,96771
2.44708,95522
2.45447,94373
2.46185,92982
2.46922,93127
2.4766,92372
2.48397,92443
2.49135,90565
2.49873,90256
2.5061,88953
2.51348,88158
2.52085,87808
2.52823,86205
2.5356,86448
2.54298,85797
2.55037,86184
2.55773,83121
2.56512,81933
2.57248,81796
2.57987,81306
2.58725,79969
2.59462,79910
2.602,79481
2.60937,78715
2.61675,79630
2.62412,77953
2.6315,76128
2.63888,76194
2.64625,77469
2.65363,74933
2.661,74877
2.66838,74874
2.67577,72878
2.68313,74613
2.69052,72230
2.69788,74756
2.70527,73153
2.71263,73444
2.72002,73390
2.7274,71810
2.73477,71306
2.74215,70424
2.74952,68468
2.7569,68731
2.76428,68784
2.77165,68115
2.77903,66719
2.7864,66332
2.79378,66473
2.80115,64173
2.80853,62954
2.81592,64492
2.82328,63340
2.83067,63733
2.83803,61924
2.84542,62535
2.8528,61657
2.86017,61403
2.86755,60012
2.87492,60521
2.8823,59176
2.88967,59514
2.89705,59284
2.90443,59107
2.9118,57110
2.91918,58241
2.92655,57750
2.93393,57465
2.94132,56964
2.94868,57373
2.95607,58422
2.96343,59164
2.97082,60486
2.97818,58707
2.98557,59192
2.99295,57409
3.00032,57355
3.0077,56116
3.01507,54836
3.02245,54961
3.02982,53917
3.0372,53122
3.04458,53195
3.05195,53796
3.05933,52260
3.0667,52969
3.07408,50981
3.08147,50768
3.08883,51557
3.09622,50349
3.10358,50083
3.11097,48262
3.11833,48425
3.12572,48985
3.1331,49285
3.14047,48404
3.14785,47592
3.15522,46726
3.1626,47754
3.16998,46268
3.17735,47127
3.18473,47026
3.1921,45604
3.19948,45689
3.20685,45959
3.21423,45687
3.22162,45365
3.22898,45158
3.23637,44524
3.24373,44830
3.25112,44709
3.2585,43804
3.26587,44432
3.27325,43518
3.28062,43782
3.288,43553
3.29537,43232
3.30275,43127
3.31013,42747
3.3175,42692
3.32488,41977
3.33225,42192
3.33963,42529
3.34702,41269
3.35438,41973
3.36177,43189
3.36913,44068
3.37652,46006
3.38388,46573
3.39127,50149
3.39865,50460
3.40602,51451
3.4134,50663
3.42077,48246
3.42815,46062
3.43553,45079
3.4429,45007
3.45028,45141
3.45765,43194
3.46503,43527
3.4724,42578
3.47978,41406
3.48717,39209
3.49453,40097
3.50192,39444
3.50928,40357
3.51667,38694
3.52405,37253
3.53142,37656
3.5388,39559
3.54617,41506
3.55355,43298
3.56092,43632
3.5683,42772
3.57568,44147
3.58305,41825
3.59043,41030
3.5978,40581
3.60518,39245
3.61255,38850
3.61993,37626
3.62732,37068
3.63468,37432
3.64207,37080
3.64943,38723
3.65682,39271
3.6642,38191
3.67157,38484
3.67895,37959
3.68632,38434
3.6937,38504
3.70107,40894
3.70845,40137
3.71583,38640
3.7232,37338
3.73058,37113
3.73795,42996
3.74533,50910
3.75272,53543
3.76008,51686
3.76747,49073
3.77483,46046
3.78222,45681
3.78958,42949
3.79697,39982
3.80435,40340
3.81172,41429
3.8191,41107
3.82647,39983
3.83385,37615
3.84123,36781
3.8486,36207
3.85598,37360
3.86335,36409
3.87073,34927
3.8781,34537
3.88548,33396
3.89287,32703
3.90023,32915
3.90762,34799
3.91498,36548
3.92237,36603
3.92975,37273
3.93712,36033
3.9445,35898
3.95187,35267
3.95925,33931
3.96662,34481
3.974,33205
3.98138,33588
3.98875,34847
3.99613,34181
4.0035,33854
4.01088,32880
4.01827,32201
4.02563,32293
4.03302,32586
4.04038,32194
4.04777,31730
4.05513,32932
4.06252,31653
4.0699,34212
4.07727,37667
4.08465,38496
4.09202,36500
4.0994,35323
4.10678,32729
4.11415,31461
4.12153,30954
4.1289,31887
4.13628,35556
4.14365,41304
4.15103,46007
4.15842,45845
4.16578,43468
4.17317,45389
4.18053,51743
4.18792,54029
4.19528,49929
4.20267,41926
4.21005,37335
4.21742,37105
4.2248,39900
4.23217,42434
4.23955,41237
4.24693,38936
4.2543,35657
4.26168,34460
4.26905,34569
4.27643,34152
4.2838,36145
4.29118,34413
4.29857,31822
4.30593,30570
4.31332,27947
4.32068,28952
4.32807,28571
4.33545,29518
4.34282,30657
4.3502,30803
4.35757,29137
4.36495,28136
4.37232,27223
4.3797,26061
4.38708,26321
4.39445,33221
4.40183,43812
4.4092,54093
4.41658,56345
4.42397,51031
4.43133,46125
4.43872,45003
4.44608,41522
4.45347,36882
4.46083,35046
4.46822,41750
4.4756,62353
4.48297,80468
4.49035,81645
4.49772,80330
4.5051,84945
4.51248,75254
4.51985,55562
4.52723,41106
4.5346,33457
4.54198,31139
4.54935,31644
4.55673,37594
4.56412,51713
4.57148,100395
4.57887,176858
4.58623,206533
4.59362,177230
4.601,130273
4.60837,88435
4.61575,62099
4.62312,44617
4.6305,36291
4.63787,34294
4.64525,33602
4.65263,32145
4.66,28886
4.66738,26451
4.67475,26086
4.68213,29728
4.68952,38964
4.69688,44359
4.70427,41691
4.71163,35971
4.71902,31802
4.72638,31154
4.73377,33812
4.74115,35635
4.74852,34693
4.7559,32760
4.76327,40249
4.77065,57052
4.77802,70838
4.7854,68381
4.79278,58381
4.80015,48761
4.80753,47609
4.8149,70168
4.82228,93433
4.82967,83732
4.83703,66869
4.84442,84166
4.85178,119033
4.85917,128812
4.86653,118711
4.87392,93148
4.8813,69202
4.88867,53824
4.89605,44744
4.90342,77746
4.9108,255838
4.91818,443422
4.92555,366475
4.93293,192818
4.9403,98819
4.94768,60681
4.95505,41508
4.96243,31123
4.96982,26708
4.97718,26629
4.98457,26470
4.99193,24902
4.99932,24396
5.0067,23932
5.01407,23771
5.02145,29036
5.02882,49075
5.0362,69127
5.04357,86435
5.05095,111419
5.05833,115771
5.0657,82097
5.07308,49747
5.08045,37308
5.08783,43637
5.09522,62228
5.10258,82805
5.10997,95306
5.11733,79343
5.12472,56346
5.13208,46459
5.13947,46930
5.14685,44963
5.15422,39789
5.1616,35542
5.16897,41896
5.17635,53270
5.18373,57030
5.1911,90078
5.19848,141310
5.20585,165770
5.21323,155742
5.2206,112317
5.22798,64147
5.23537,40249
5.24273,31659
5.25012,52260
5.25748,90949
5.26487,97529
5.27225,66824
5.27962,50345
5.287,53858
5.29437,57954
5.30175,85513
5.30912,215242
5.3165,378870
5.32388,370840
5.33125,270358
5.33863,200987
5.346,163359
5.35338,113376
5.36075,73674
5.36813,69138
5.37552,98218
5.38288,161130
5.39027,182525
5.39763,126416
5.40502,85562
5.4124,82072
5.41977,89829
5.42715,94206
5.43452,88652
5.4419,72907
5.44927,67300
5.45665,70961
5.46403,70947
5.4714,59292
5.47878,56965
5.48615,65296
5.49353,65080
5.50092,66894
5.50828,59372
5.51567,48273
5.52303,44591
5.53042,64064
5.53778,133871
5.54517,258201
5.55255,318698
5.55992,276037
5.5673,227771
5.57467,172102
5.58205,107198
5.58943,79510
5.5968,119389
5.60418,210618
5.61155,191628
5.61893,171693
5.6263,364316
5.63368,474583
5.64107,429396
5.64843,677305
5.65582,847017
5.66318,778677
5.67057,758710
5.67795,529787
5.68532,391394
5.6927,420662
5.70007,350966
5.70745,193204
5.71482,91340
5.7222,59857
5.72958,76477
5.73695,314672
5.74433,853268
5.7517,897172
5.75908,449134
5.76647,175794
5.77383,104793
5.78122,78843
5.78858,73934
5.79597,78815
5.80333,86179
5.81072,122455
5.8181,157341
5.82547,130761
5.83285,109054
5.84022,138714
5.8476,215269
5.85498,315934
5.86235,304793
5.86973,193618
5.8771,144192
5.88448,130147
5.89185,102056
5.89923,73812
5.90662,59189
5.91398,75880
5.92137,158048
5.92873,289986
5.93612,358224
5.94348,280284
5.95087,217984
5.95825,210723
5.96562,204867
5.973,204623
5.98037,212139
5.98775,176846
5.99513,115473
6.0025,115936
6.00988,154348
6.01725,139342
6.02463,191207
6.032,714307
6.03938,1411211
6.04677,1224209
6.05413,534414
6.06152,418445
6.06888,1424952
6.07627,2717871
6.08365,2036412
6.09102,626102
6.0984,248900
6.10577,138010
6.11315,93850
6.12052,96172
6.1279,116283
6.13528,132990
6.14265,99219
6.15003,83133
6.1574,104876
6.16478,100796
6.17217,86977
6.17953,96642
6.18692,126483
6.19428,189920
6.20167,244676
6.20903,258973
6.21642,341361
6.2238,353286
6.23117,227665
6.23855,167059
6.24592,177598
6.2533,224367
6.26068,240623
6.26805,207574
6.27543,267604
6.2828,371013
6.29018,299014
6.29755,196177
6.30493,208365
6.31232,392046
6.31968,944678
6.32707,1029824
6.33443,431274
6.34182,160973
6.3492,282328
6.35657,492630
6.36395,455724
6.37132,356213
6.3787,368046
6.38607,413055
6.39345,337348
6.40083,194526
6.4082,156807
6.41558,190525
6.42295,211477
6.43033,220638
6.43772,232457
6.44508,205773
6.45247,160634
6.45983,274360
6.46722,439871
6.47458,383086
6.48197,414991
6.48935,702260
6.49672,671617
6.5041,545608
6.51147,670050
6.51885,584357
6.52623,385770
6.5336,285123
6.54098,253281
6.54835,239685
6.55573,179615
6.5631,104819
6.57048,82607
6.57787,96493
6.58523,139372
6.59262,213349
6.59998,242620
6.60737,180494
6.61473,206437
6.62212,334401
6.6295,555504
6.63687,666796
6.64425,453030
6.65162,324933
6.659,359542
6.66638,622820
6.67375,884256
6.68113,624767
6.6885,383181
6.69588,667335
6.70325,936739
6.71063,520321
6.71802,266534
6.72538,507807
6.73277,1168806
6.74013,1707433
6.74752,1154293
6.7549,369269
6.76227,179653
6.76965,189988
6.77702,366853
6.7844,941140
6.79177,1262646
6.79915,634296
6.80653,385950
6.8139,413419
6.82128,594806
6.82865,664400
6.83603,562734
6.84342,482372
6.85078,682212
6.85817,1184720
6.86553,902050
6.87292,380947
6.88028,345629
6.88767,310373
6.89505,199215
6.90242,131183
6.9098,143728
6.91717,202547
6.92455,234125
6.93193,259740
6.9393,406934
6.94668,584859
6.95405,434947
6.96143,258363
6.9688,340811
6.97618,584108
6.98357,542383
6.99093,283124
6.99832,189217
7.00568,219796
7.01307,284867
7.02045,298444
7.02782,380214
7.0352,564192
7.04257,960470
7.04995,1054644
7.05732,769600
7.0647,582606
7.07208,468577
7.07945,585130
7.08683,554316
7.0942,385124
7.10158,337590
7.10897,353076
7.11633,485943
7.12372,515795
7.13108,396075
7.13847,254398
7.14583,217397
7.15322,274561
7.1606,680371
7.16797,2365519
7.17535,4822099
7.18272,4358582
7.1901,1161702
7.19747,521484
7.20485,466580
7.21223,536590
7.2196,762102
7.22698,870616
7.23435,664252
7.24173,348099
7.24912,257443
7.25648,312698
7.26387,417824
7.27123,333695
7.27862,260170
7.28598,361972
7.29337,483719
7.30075,504833
7.30812,589102
7.3155,587581
7.32287,504134
7.33025,584241
7.33763,622942
7.345,710039
7.35238,695325
7.35975,459338
7.36713,359809
7.3745,323400
7.38188,298004
7.38927,509969
7.39663,688786
7.40402,564361
7.41138,523523
7.41877,575917
7.42615,948207
7.43352,1346217
7.4409,983971
7.44827,934602
7.45565,979976
7.46302,598381
7.4704,433463
7.47778,310227
7.48515,237249
7.49253,278142
7.4999,276670
7.50728,291358
7.51467,303797
7.52203,343418
7.52942,498730
7.53678,534956
7.54417,410682
7.55153,276208
7.55892,237152
7.5663,316036
7.57367,437703
7.58105,436594
7.58842,449172
7.5958,1097106
7.60318,1781051
7.61055,1387555
7.61793,1060755
7.6253,895693
7.63268,536138
7.64005,343144
7.64743,365464
7.65482,622227
7.66218,851251
7.66957,708534
7.67693,683510
7.68432,545098
7.6917,346506
7.69907,308938
7.70645,330093
7.71382,318059
7.7212,444891
7.72857,838468
7.73595,1069720
7.74333,1222476
7.7507,1254123
7.75808,1181270
7.76545,857765
7.77283,676408
7.7802,791006
7.78758,1141099
7.79497,867843
7.80233,458743
7.80972,409345
7.81708,460901
7.82447,696471
7.83185,1290350
7.83922,1820267
7.8466,1446054
7.85397,705311
7.86135,397372
7.86872,276878
7.8761,318945
7.88348,411475
7.89085,517298
7.89823,1071341
7.9056,1956835
7.91298,1570374
7.92037,650534
7.92773,381591
7.93512,431125
7.94248,508265
7.94987,524743
7.95723,389195
7.96462,308261
7.972,349194
7.97937,471805
7.98675,510735
7.99412,422566
8.0015,518261
8.00888,592590
8.01625,511378
8.02363,360388
8.031,315718
8.03838,423130
8.04575,494346
8.05313,424984
8.06052,357348
8.06788,329897
8.07527,340204
8.08263,327411
8.09002,370204
8.0974,487556
8.10477,724491
8.11215,807307
8.11952,894662
8.1269,1035222
8.13427,991947
8.14165,898321
8.14903,903199
8.1564,1021363
8.16378,989247
8.17115,748394
8.17853,526849
8.18592,608162
8.19328,1141497
8.20067,3217437
8.20803,5414272
8.21542,3689707
8.22278,1066889
8.23017,816393
8.23755,981342
8.24492,882045
8.2523,533952
8.25967,478378
8.26705,527359
8.27443,423035
8.2818,394064
8.28918,435520
8.29655,519775
8.30393,529076
8.3113,415215
8.31868,670632
8.32607,1685899
8.33343,2360938
8.34082,1436560
8.34818,634143
8.35557,400589
8.36293,399499
8.37032,552196
8.3777,526640
8.38507,441744
8.39245,426551
8.39982,449670
8.4072,610194
8.41458,741244
8.42195,664256
8.42933,437466
8.4367,325543
8.44408,304343
8.45145,353514
8.45883,618580
8.46622,859772
8.47358,884001
8.48097,738924
8.48833,546994
8.49572,498111
8.5031,572376
8.51047,486410
8.51785,349962
8.52522,381131
8.5326,550717
8.53997,703670
8.54735,569350
8.55473,352308
8.5621,365050
8.56948,460227
8.57685,548399
8.58423,1593822
8.59162,3556983
8.59898,3104988
8.60637,1567213
8.61373,837393
8.62112,498945
8.62848,410325
8.63587,401645
8.64325,617536
8.65062,1179529
8.658,1476765
8.66537,1035278
8.67275,594718
8.68013,429980
8.6875,391990
8.69488,502722
8.70225,806557
8.70963,821710
8.717,606778
8.72438,768807
8.73177,818965
8.73913,685968
8.74652,781477
8.75388,820532
8.76127,856686
8.76865,1232891
8.77602,1681602
8.7834,1621001
8.79077,1542305
8.79815,1609063
8.80552,1771155
8.8129,2028280
8.82028,2529877
8.82765,3116690
8.83503,3114083
8.8424,2768017
8.84978,2521312
8.85717,1040998
8.86453,758107
8.87192,754495
8.87928,807217
8.88667,1131382
8.89403,1785100
8.90142,2421516
8.9088,1940473
8.91617,793968
8.92355,462909
8.93092,519981
8.9383,775719
8.94567,1235154
8.95305,1088102
8.96043,668399
8.9678,469955
8.97518,416776
8.98255,420763
8.98993,437637
8.99732,472685
9.00468,430109
9.01207,380236
9.01943,378250
9.02682,467184
9.03418,615097
9.04157,603674
9.04895,551259
9.05632,508904
9.0637,371127
9.07107,309831
9.07845,355676
9.08583,443482
9.0932,472143
9.10058,533501
9.10795,582555
9.11533,529780
9.1227,506415
9.13008,596638
9.13747,610630
9.14483,612774
9.15222,719770
9.15958,1139929
9.16697,2663002
9.17435,4218150
9.18172,2569968
9.1891,1022434
9.19647,830606
9.20385,573950
9.21122,434400
9.2186,431815
9.22598,514189
9.23335,561383
9.24073,548659
9.2481,556321
9.25548,578600
9.26287,624886
9.27023,659242
9.27762,557380
9.28498,537639
9.29237,519535
9.29973,416848
9.30712,410301
9.3145,498175
9.32187,655976
9.32925,758740
9.33662,514179
9.344,320616
9.35138,309091
9.35875,398101
9.36613,515773
9.3735,528411
9.38088,387303
9.38825,307585
9.39563,338774
9.40302,375580
9.41038,404646
9.41777,461622
9.42513,525658
9.43252,485870
9.4399,403100
9.44727,486573
9.45465,729850
9.46202,771732
9.4694,634723
9.47677,610499
9.48415,615885
9.49153,507796
9.4989,407649
9.50628,420841
9.51365,518086
9.52103,470714
9.5284,351538
9.53578,311399
9.54317,337295
9.55053,413144
9.55792,427173
9.56528,363860
9.57267,313411
9.58005,333001
9.58742,397116
9.5948,412536
9.60217,413667
9.60955,401936
9.61692,439474
9.6243,689857
9.63168,993303
9.63905,1026660
9.64643,763736
9.6538,614186
9.66118,516142
9.66857,451459
9.67593,425116
9.68332,420612
9.69068,427608
9.69807,596427
9.70543,687434
9.71282,488516
9.7202,349499
9.72757,305486
9.73495,299325
9.74232,362684
9.7497,612115
9.75708,826230
9.76445,593232
9.77183,386657
9.7792,335776
9.78658,315402
9.79395,331172
9.80133,411813
9.80872,528500
9.81608,662974
9.82347,613645
9.83083,534157
9.83822,533475
9.8456,435076
9.85297,620296
9.86035,1241049
9.86772,1136678
9.8751,480269
9.88247,306435
9.88985,288407
9.89723,294358
9.9046,336695
9.91198,357659
9.91935,336134
9.92673,321369
9.93412,285176
9.94148,249746
9.94887,241762
9.95623,258770
9.96362,293103
9.97098,393386
9.97837,608232
9.98575,637094
9.99312,434209
10.0005,335509
10.0079,308479
10.0153,306378
10.0226,320857
10.03,334666
10.0374,332936
10.0448,347208
10.0521,325862
10.0595,319254
10.0669,558164
10.0743,1561754
10.0816,2550247
10.089,1629934
10.0964,729159
10.1038,632846
10.1111,462089
10.1185,336383
10.1259,283308
10.1333,256907
10.1407,323570
10.148,431199
10.1554,429487
10.1628,362492
10.1702,362870
10.1775,381767
10.1849,316946
10.1923,277092
10.1997,282624
10.207,309967
10.2144,296788
10.2218,287074
10.2292,305637
10.2365,303893
10.2439,269152
10.2513,231443
10.2587,234258
10.2661,270345
10.2734,282675
10.2808,282918
10.2882,258727
10.2956,240874
10.3029,231241
10.3103,237821
10.3177,249106
10.3251,244394
10.3324,243694
10.3398,262076
10.3472,264120
10.3546,268081
10.3619,277257
10.3693,283731
10.3767,298533
10.3841,293322
10.3915,285241
10.3988,266643
10.4062,249252
10.4136,231261
10.421,249251
10.4283,299784
10.4357,303672
10.4431,261205
10.4505,239335
10.4578,308146
10.4652,432393
10.4726,375085
10.48,268269
10.4873,295856
10.4947,324661
10.5021,347406
10.5095,316366
10.5169,291850
10.5242,320816
10.5316,327526
10.539,272815
10.5464,315377
10.5537,432493
10.5611,505688
10.5685,416808
10.5759,373192
10.5832,349729
10.5906,432964
10.598,805463
10.6054,836885
10.6127,455250
10.6201,297968
10.6275,374153
10.6349,374490
10.6422,269665
10.6496,217298
10.657,205260
10.6644,206785
10.6718,194975
10.6791,197106
10.6865,286420
10.6939,331818
10.7013,243578
10.7086,200577
10.716,210338
10.7234,202529
10.7308,187417
10.7381,192179
10.7455,197158
10.7529,181681
10.7603,199118
10.7676,239205
10.775,257226
10.7824,287442
10.7898,327764
10.7972,292820
10.8045,200503
10.8119,150086
10.8193,143541
10.8267,151453
10.834,152830
10.8414,160971
10.8488,179380
10.8562,180493
10.8635,184332
10.8709,184754
10.8783,168646
10.8857,170145
10.893,195404
10.9004,197948
10.9078,172373
10.9152,180470
10.9226,273402
10.9299,697336
10.9373,1276053
10.9447,930352
10.9521,320753
10.9594,198726
10.9668,214593
10.9742,205906
10.9816,190576
10.9889,196063
10.9963,203376
11.0037,207537
11.0111,202709
11.0184,179191
11.0258,170157
11.0332,167103
11.0406,172082
11.0479,158852
11.0553,156675
11.0627,173639
11.0701,165242
11.0775,142492
11.0848,134307
11.0922,135153
11.0996,147898
11.107,157348
11.1143,159028
11.1217,138952
11.1291,123814
11.1365,126310
11.1438,127513
11.1512,123491
11.1586,128716
11.166,130606
11.1733,130301
11.1807,128713
11.1881,125451
11.1955,125901
11.2029,109977
11.2102,104579
11.2176,123547
11.225,137661
11.2324,124348
11.2397,108997
11.2471,108592
11.2545,115459
11.2619,120920
11.2692,121129
11.2766,120851
11.284,125319
11.2914,118544
11.2987,121971
11.3061,136347
11.3135,149281
11.3209,154415
11.3283,160069
11.3356,137523
11.343,115508
11.3504,132882
11.3578,189675
11.3651,199382
11.3725,150158
11.3799,111872
11.3873,104377
11.3946,115853
11.402,157039
11.4094,192523
11.4168,157912
11.4241,153637
11.4315,184121
11.4389,163601
11.4463,145983
11.4536,207327
11.461,237126
11.4684,178727
11.4758,137371
11.4832,124148
11.4905,112107
11.4979,101669
11.5053,104707
11.5127,133885
11.52,150096
11.5274,117223
11.5348,105166
11.5422,103857
11.5495,101287
11.5569,102482
11.5643,92000
11.5717,88460
11.579,95690
11.5864,105090
11.5938,107021
11.6012,96487
11.6086,86099
11.6159,84625
11.6233,85695
11.6307,87001
11.6381,87563
11.6454,89835
11.6528,92102
11.6602,96301
11.6676,97872
11.6749,93660
11.6823,84883
11.6897,76897
11.6971,80822
11.7044,88682
11.7118,91565
11.7192,87612
11.7266,87060
11.734,119017
11.7413,345092
11.7487,647712
11.7561,420676
11.7635,163168
11.7708,98618
11.7782,83974
11.7856,81252
11.793,94772
11.8003,110912
11.8077,119109
11.8151,106131
11.8225,95013
11.8298,93687
11.8372,95329
11.8446,84581
11.852,77671
11.8594,76943
11.8667,76270
11.8741,78294
11.8815,77729
11.8889,74004
11.8962,76216
11.9036,91687
11.911,91456
11.9184,79960
11.9257,79385
11.9331,77736
11.9405,78173
11.9479,74907
11.9552,73320
11.9626,77791
11.97,76280
11.9774,66422
11.9847,66502
11.9921,67696
11.9995,67686
12.0069,70186
12.0143,71247
12.0216,71954
12.029,63854
12.0364,61251
12.0438,59227
12.0511,63035
12.0585,63871
12.0659,66765
12.0733,67548
12.0806,74898
12.088,90539
12.0954,118720
12.1028,180860
12.1101,241329
12.1175,210051
12.1249,113732
12.1323,73753
12.1397,77079
12.147,78933
12.1544,68246
12.1618,64943
12.1692,68170
12.1765,72192
12.1839,77531
12.1913,86647
12.1987,78040
12.206,63527
12.2134,58881
12.2208,67783
12.2282,81707
12.2355,92737
12.2429,100855
12.2503,107557
12.2577,99544
12.2651,79742
12.2724,74175
12.2798,69446
12.2872,65491
12.2946,74178
12.3019,81833
12.3093,66552
12.3167,58855
12.3241,60146
12.3314,58975
12.3388,59683
12.3462,60779
12.3536,60006
12.3609,57803
12.3683,56330
12.3757,58025
12.3831,59685
12.3904,58192
12.3978,57351
12.4052,64208
12.4126,65372
12.42,64018
12.4273,60997
12.4347,56170
12.4421,51860
12.4495,50481
12.4568,51616
12.4642,53496
12.4716,54611
12.479,53290
12.4863,55173
12.4937,57525
12.5011,68776
12.5085,155249
12.5158,360525
12.5232,335966
12.5306,215064
12.538,279351
12.5454,330922
12.5527,231785
12.5601,108912
12.5675,69233
12.5749,63318
12.5822,62273
12.5896,63875
12.597,70489
12.6044,68912
12.6117,61753
12.6191,55914
12.6265,56121
12.6339,56242
12.6412,55392
12.6486,52312
12.656,51016
12.6634,53753
12.6708,59938
12.6781,57416
12.6855,53971
12.6929,54200
12.7003,56993
12.7076,53791
12.715,55262
12.7224,56199
12.7298,51612
12.7371,50536
12.7445,51177
12.7519,50303
12.7593,51177
12.7666,51503
12.774,51830
12.7814,52474
12.7888,48329
12.7961,47988
12.8035,48988
12.8109,52046
12.8183,57100
12.8257,69833
12.833,78077
12.8404,73306
12.8478,60482
12.8552,57181
12.8625,58238
12.8699,53221
12.8773,53325
12.8847,63670
12.892,70512
12.8994,59695
12.9068,47980
12.9142,44731
12.9215,45700
12.9289,51378
12.9363,60711
12.9437,60296
12.9511,51930
12.9584,48459
12.9658,47226
12.9732,51974
12.9806,62677
12.9879,67861
12.9953,61624
13.0027,57270
13.0101,50741
13.0174,51457
13.0248,61986
13.0322,71742
13.0396,69999
13.0469,61852
13.0543,51169
13.0617,48978
13.0691,52511
13.0765,52872
13.0838,51071
13.0912,50088
13.0986,51242
13.106,51278
13.1133,50265
13.1207,50527
13.1281,49087
13.1355,49135
13.1428,47785
13.1502,45908
13.1576,46188
13.165,45986
13.1723,48934
13.1797,47791
13.1871,49400
13.1945,48612
13.2018,48532
13.2092,45699
13.2166,44816
13.224,44479
13.2314,50302
13.2387,105001
13.2461,212382
13.2535,203517
13.2609,92720
13.2682,53074
13.2756,49009
13.283,63679
13.2904,109360
13.2977,150251
13.3051,132908
13.3125,79180
13.3199,52213
13.3272,45980
13.3346,45630
13.342,50317
13.3494,50362
13.3568,46224
13.3641,43565
13.3715,42588
13.3789,45680
13.3863,46236
13.3936,45775
13.401,43532
13.4084,42481
13.4158,43016
13.4231,42131
13.4305,42519
13.4379,42481
13.4453,42071
13.4526,43827
13.46,43849
13.4674,43575
13.4748,46575
13.4822,47085
13.4895,46417
13.4969,52917
13.5043,55256
13.5117,51594
13.519,46706
13.5264,48844
13.5338,51208
13.5412,51126
13.5485,49432
13.5559,49103
13.5633,48219
13.5707,46799
13.578,44003
13.5854,40853
13.5928,40857
13.6002,43078
13.6076,40974
13.6149,38679
13.6223,37470
13.6297,37197
13.6371,38076
13.6444,41866
13.6518,44104
13.6592,40294
13.6666,39600
13.6739,37644
13.6813,38332
13.6887,43058
13.6961,44943
13.7034,39508
13.7108,37309
13.7182,37861
13.7256,39924
13.7329,40722
13.7403,40343
13.7477,43991
13.7551,43382
13.7625,42892
13.7698,43932
13.7772,39569
13.7846,36108
13.792,37247
13.7993,36929
13.8067,36406
13.8141,36032
13.8215,36266
13.8288,35460
13.8362,35197
13.8436,33885
13.851,35014
13.8583,36733
13.8657,44944
13.8731,46341
13.8805,43346
13.8879,37542
13.8952,36998
13.9026,36126
13.91,35690
13.9174,33015
13.9247,32534
13.9321,49587
13.9395,95141
13.9469,113074
13.9542,68831
13.9616,39929
13.969,35053
13.9764,33371
13.9837,32658
13.9911,32312
13.9985,31658
14.0059,35009
14.0133,35112
14.0206,34573
14.028,33521
14.0354,32432
14.0428,31404
14.0501,30423
14.0575,32273
14.0649,31588
14.0723,30612
14.0796,30370
14.087,33030
14.0944,40668
14.1018,52480
14.1091,55296
14.1165,42821
14.1239,34927
14.1313,31908
14.1386,31913
14.146,30530
14.1534,29935
14.1608,30645
14.1682,31794
14.1755,31423
14.1829,31184
14.1903,30685
14.1977,31664
14.205,32361
14.2124,31718
14.2198,30856
14.2272,30054
14.2345,29970
14.2419,28938
14.2493,28074
14.2567,28058
14.264,29089
14.2714,29611
14.2788,27314
14.2862,27760
14.2936,26794
14.3009,26406
14.3083,27203
14.3157,27224
14.3231,28394
14.3304,27010
14.3378,27529
14.3452,27850
14.3526,28780
14.3599,29122
14.3673,27551
14.3747,27921
14.3821,25265
14.3894,25468
14.3968,25118
14.4042,27553
14.4116,29805
14.419,27293
14.4263,25477
14.4337,25537
14.4411,27231
14.4485,29112
14.4558,30168
14.4632,28764
14.4706,26462
14.478,25277
14.4853,24238
14.4927,25532
14.5001,25262
14.5075,24543
14.5148,24797
14.5222,24656
14.5296,25708
14.537,26380
14.5443,25531
14.5517,24894
14.5591,23839
14.5665,26333
14.5739,42936
14.5812,62987
14.5886,47547
14.596,29306
14.6034,26205
14.6107,24599
14.6181,24561
14.6255,24270
14.6329,24205
14.6402,24101
14.6476,24084
14.655,24896
14.6624,24790
14.6697,23902
14.6771,23738
14.6845,24607
14.6919,23663
14.6993,23995
14.7066,23879
14.714,22966
14.7214,23271
14.7288,21762
14.7361,22058
14.7435,21909
14.7509,21661
14.7583,21785
14.7656,24308
14.773,27504
14.7804,25444
14.7878,23284
14.7951,23506
14.8025,24139
14.8099,23835
14.8173,23566
14.8247,22719
14.832,22216
14.8394,22469
14.8468,22120
14.8542,22646
14.8615,22358
14.8689,21749
14.8763,21363
14.8837,22313
14.891,21147
14.8984,21249
14.9058,21785
14.9132,21939
14.9205,21077
14.9279,21062
14.9353,21677
14.9427,21996
14.95,21633
14.9574,21175
14.9648,20888
14.9722,20376
14.9796,21639
14.9869,22425
14.9943,22850
15.0017,22546
15.0091,21892
15.0164,21699
15.0238,20693
15.0312,20214
15.0386,21657
15.0459,21803
15.0533,21825
15.0607,22247
15.0681,21483
15.0754,21662
15.0828,20867
15.0902,19765
15.0976,23172
15.105,26523
15.1123,25405
15.1197,22958
15.1271,26444
15.1345,53054
15.1418,83566
15.1492,61596
15.1566,38976
15.164,31604
15.1713,28785
15.1787,25955
15.1861,24282
15.1935,24099
15.2008,22738
15.2082,22523
15.2156,22648
15.223,21192
15.2304,22063
15.2377,21889
15.2451,22754
15.2525,23778
15.2599,24566
15.2672,24576
15.2746,24691
15.282,24127
15.2894,22764
15.2967,23191
15.3041,22078
15.3115,22788
15.3189,22303
15.3262,23861
15.3336,23664
15.341,23307
15.3484,23402
15.3558,25022
15.3631,27007
15.3705,28045
15.3779,26787
15.3853,25721
15.3926,25116
15.4,23549
15.4074,21285
15.4148,20865
15.4221,20540
15.4295,21169
15.4369,21468
15.4443,20407
15.4516,20290
15.459,20759
15.4664,21289
15.4738,20184
15.4811,21124
15.4885,21055
15.4959,20396
15.5033,21117
15.5107,20816
15.518,20691
15.5254,20774
15.5328,20616
15.5402,20630
15.5475,20354
15.5549,20124
15.5623,20158
15.5697,20778
15.577,20794
15.5844,20780
15.5918,21074
15.5992,21381
15.6065,21170
15.6139,21060
15.6213,22888
15.6287,26039
15.6361,25695
15.6434,22962
15.6508,20824
15.6582,21489
15.6656,21865
15.6729,21786
15.6803,21108
15.6877,22092
15.6951,20654
15.7024,21570
15.7098,21245
15.7172,20513
15.7246,20582
15.7319,20342
15.7393,21055
15.7467,20850
15.7541,20799
15.7615,21204
15.7688,21016
15.7762,21093
15.7836,21181
15.791,21262
15.7983,21111
15.8057,21770
15.8131,21672
15.8205,22014
15.8278,22246
15.8352,22106
15.8426,23050
15.85,23062
15.8573,22563
15.8647,22220
15.8721,22452
15.8795,23003
15.8868,22474
15.8942,22803
15.9016,23154
15.909,22659
15.9164,23813
15.9237,23641
15.9311,24086
15.9385,23098
15.9459,23590
15.9532,23062
15.9606,23126
15.968,23582
15.9754,23612
15.9827,24162
15.9901,25989
15.9975,25649
16.0049,27319
16.0122,26157
16.0196,26392
16.027,26290
16.0344,25170
16.0418,25756
16.0491,25549
16.0565,25539
16.0639,25615
16.0712,26375
16.0786,28770
16.086,27288
16.0934,35939
16.1008,48367
16.1081,41592
16.1155,32883
16.1229,29558
16.1303,28720
16.1376,28124
16.145,27803
16.1524,27334
16.1598,27366
16.1671,27399
16.1745,27422
16.1819,27627
16.1893,25700
16.1967,25916
16.204,27135
16.2114,27843
16.2188,27675
16.2262,26463
16.2335,25616
16.2409,26625
16.2483,25741
16.2557,26099
16.263,25946
16.2704,25337
16.2778,25073
16.2852,25449
16.2925,24294
16.2999,24343
16.3073,25174
16.3147,24901
16.3221,25205
16.3294,25821
16.3368,25722
16.3442,24613
16.3516,25249
16.3589,25465
16.3663,25395
16.3737,25302
16.381,24242
16.3884,25471
16.3958,25439
16.4032,25750
16.4106,25654
16.4179,25655
16.4253,25588
16.4327,26073
16.4401,25049
16.4475,25257
16.4548,24771
16.4622,25674
16.4696,25907
16.4769,25586
16.4843,25952
16.4917,26142
16.4991,25960
16.5065,26864
16.5138,26274
16.5212,27428
16.5286,26385
16.536,26298
16.5433,26356
16.5507,26432
16.5581,26659
16.5655,25420
16.5728,25396
16.5802,25568
16.5876,25691
16.595,25669
16.6024,27009
16.6097,25932
16.6171,24752
16.6245,25625
16.6319,25686
16.6392,25496
16.6466,25444
16.654,25876
16.6614,26202
16.6687,26859
16.6761,27671
16.6835,28081
16.6909,28340
16.6982,28089
16.7056,27620
16.713,27796
16.7204,25591
16.7278,26999
16.7351,25610
16.7425,25505
16.7499,26090
16.7572,26012
16.7646,26249
16.772,26579
16.7794,26251
16.7868,27153
16.7941,27222
16.8015,27552
16.8089,27242
16.8163,26984
16.8236,26026
16.831,26436
16.8384,26741
16.8458,25823
16.8531,26305
16.8605,26605
16.8679,26609
16.8753,26992
16.8827,26688
16.89,26315
16.8974,26186
16.9048,25702
16.9122,25753
16.9195,25978
16.9269,26590
16.9343,25617
16.9417,26069
16.949,26933
16.9564,26823
16.9638,25795
16.9712,26453
16.9785,26048
16.9859,25626
16.9933,26380
17.0007,26271
17.0081,26537
17.0154,26950
17.0228,25822
17.0302,26907
17.0376,27082
17.0449,25854
17.0523,26467
17.0597,26577
17.0671,27067
17.0744,26517
17.0818,27316
17.0892,26359
17.0966,26765
17.104,27265
17.1113,25829
17.1187,26187
17.1261,25713
17.1335,26194
17.1408,25901
17.1482,26119
17.1556,25852
17.1629,26252
17.1703,27146
17.1777,27742
17.1851,28474
17.1925,29014
17.1998,28375
17.2072,27068
17.2146,26359
17.222,26501
17.2293,25292
17.2367,25963
17.2441,25900
17.2515,26697
17.2588,27019
17.2662,26230
17.2736,26665
17.281,26108
17.2884,26094
17.2957,27007
17.3031,26865
17.3105,26534
17.3179,25974
17.3252,25804
17.3326,25746
17.34,26024
17.3474,26165
17.3547,25693
17.3621,26266
17.3695,26026
17.3769,25064
17.3843,25190
17.3916,25288
17.399,24890
17.4064,24701
17.4138,25240
17.4211,26111
17.4285,25794
17.4359,25978
17.4433,27224
17.4506,27552
17.458,29085
17.4654,29966
17.4728,30796
17.4801,32901
17.4875,34214
