D:\Data GC-MS\2021\8 AUGUST\16-08-21\42901-21-1 YKK.D 16 Aug 21  09:43 am
Start of data points
1.29392,3636364
1.30067,3418530
1.3074,3260307
1.31415,3191128
1.32088,2984005
1.32763,2913654
1.33438,2538476
1.34112,2216620
1.34787,1872406
1.3546,1686111
1.36135,1510953
1.36808,1364105
1.37483,1370557
1.38158,1170171
1.38832,1018555
1.39507,936748
1.4018,920781
1.40855,787132
1.41528,728496
1.42203,668864
1.42878,617875
1.43552,571677
1.44227,534348
1.449,492568
1.45575,458409
1.46248,424261
1.46923,414296
1.47597,381391
1.48272,350592
1.48947,327269
1.51032,1003626
1.5177,914675
1.52507,807476
1.53245,746886
1.53983,682787
1.5472,634289
1.55458,586939
1.56195,536125
1.56933,497342
1.57672,459262
1.58408,423916
1.59147,392008
1.59883,363460
1.60622,332925
1.61358,307634
1.62097,283591
1.62835,263127
1.63572,244055
1.6431,223910
1.65047,206986
1.65785,191848
1.66523,175780
1.6726,163002
1.67998,153341
1.68735,142655
1.69473,131351
1.7021,123598
1.70948,112353
1.71687,106479
1.72423,99848
1.73162,93180
1.73898,84000
1.74637,78801
1.75375,74293
1.76112,67862
1.7685,63379
1.77587,57412
1.78325,53994
1.79062,50046
1.798,46022
1.80538,42699
1.81275,40185
1.82013,37585
1.8275,33633
1.83488,31731
1.84227,29435
1.84963,27958
1.85702,24813
1.86438,23996
1.87177,22423
1.87913,20849
1.88652,18758
1.8939,17740
1.90127,17350
1.90865,15754
1.91602,15652
1.9234,14053
1.93078,13424
1.93815,12824
1.94553,11944
1.9529,11488
1.96028,10270
1.96765,10188
1.97503,9435
1.98242,9136
1.98978,8729
1.99717,8087
2.00453,7772
2.01192,7380
2.0193,6999
2.02667,7161
2.03405,6459
2.04142,6266
2.0488,6352
2.05617,5661
2.06355,5421
2.07093,5621
2.0783,5140
2.08568,5351
2.09305,4949
2.10043,5299
2.1078,5027
2.11518,4595
2.12257,4641
2.12993,4557
2.13732,4736
2.14468,4492
2.15207,4442
2.15945,4126
2.16682,4128
2.1742,3869
2.18157,3962
2.18895,4130
2.19632,4089
2.2037,4045
2.21108,3969
2.21845,4242
2.22583,3805
2.2332,4049
2.24058,3798
2.24797,3717
2.25533,3835
2.26272,3655
2.27008,3854
2.27747,3629
2.28483,3974
2.29222,3695
2.2996,3804
2.30697,3501
2.31435,3838
2.32172,3662
2.3291,3895
2.33648,3801
2.34385,3790
2.35123,3967
2.3586,3687
2.36598,3924
2.37335,3722
2.38073,3485
2.38812,3584
2.39548,4096
2.40287,3919
2.41023,3534
2.41762,3781
2.425,3718
2.43237,3693
2.43975,3497
2.44712,3568
2.4545,3577
2.46187,3647
2.46925,3627
2.47663,3421
2.484,3519
2.49138,3579
2.49875,3409
2.50613,3494
2.51352,3789
2.52088,3462
2.52827,3559
2.53563,4040
2.54302,4641
2.55038,4880
2.55777,5295
2.56515,5392
2.57252,5322
2.5799,5125
2.58727,5059
2.59465,5519
2.60203,4933
2.6094,5353
2.61678,5238
2.62415,5470
2.63153,5149
2.6389,4708
2.64628,4718
2.65367,4716
2.66103,4440
2.66842,4425
2.67578,4509
2.68317,4311
2.69053,4373
2.69792,4190
2.7053,4342
2.71267,4053
2.72005,4077
2.72742,3835
2.7348,4074
2.74218,4052
2.74955,3879
2.75693,4227
2.7643,3956
2.77168,3953
2.77905,3999
2.78643,3621
2.79382,3546
2.80118,3710
2.80857,3697
2.81593,3831
2.82332,3674
2.8307,3465
2.83807,3823
2.84545,3591
2.85282,3765
2.8602,3725
2.86757,3849
2.87495,3783
2.88233,3550
2.8897,3785
2.89708,3731
2.90445,3465
2.91183,3740
2.91922,3681
2.92658,3578
2.93397,3710
2.94133,3734
2.94872,3480
2.95608,3706
2.96347,3594
2.97085,3711
2.97822,3857
2.9856,3740
2.99297,3732
3.00035,3696
3.00773,3662
3.0151,3654
3.02248,3852
3.02985,3716
3.03723,3387
3.0446,3640
3.05198,3776
3.05937,3714
3.06673,3772
3.07412,3811
3.08148,3716
3.08887,3833
3.09625,3950
3.10362,3750
3.111,3974
3.11837,4034
3.12575,4101
3.13312,3865
3.1405,3970
3.14788,3610
3.15525,3696
3.16263,3931
3.17,3877
3.17738,3844
3.18477,4047
3.19213,3981
3.19952,3924
3.20688,4146
3.21427,3851
3.22163,3864
3.22902,4002
3.2364,3916
3.24377,3877
3.25115,3781
3.25852,3700
3.2659,3578
3.27327,3541
3.28065,3575
3.28803,3773
3.2954,3863
3.30278,3929
3.31015,4075
3.31753,4110
3.32492,4264
3.33228,3870
3.33967,4231
3.34703,3855
3.35442,3875
3.36178,4021
3.36917,4018
3.37655,3821
3.38392,3738
3.3913,3805
3.39867,3913
3.40605,3968
3.41343,3677
3.4208,3602
3.42818,3749
3.43555,3938
3.44293,3883
3.4503,3741
3.45768,4018
3.46507,3904
3.47243,3568
3.47982,3644
3.48718,3765
3.49457,3762
3.50195,3564
3.50932,3742
3.5167,3725
3.52407,3650
3.53145,3936
3.53882,3894
3.5462,3585
3.55358,3892
3.56095,3811
3.56833,3580
3.5757,3992
3.58308,3803
3.59047,4081
3.59783,3864
3.60522,4141
3.61258,4019
3.61997,3564
3.62733,3828
3.63472,3852
3.6421,3806
3.64947,3747
3.65685,4101
3.66422,3784
3.6716,3899
3.67898,3781
3.68635,3883
3.69373,4538
3.7011,5230
3.70848,5686
3.71585,4951
3.72323,4741
3.73062,4431
3.73798,4477
3.74537,4302
3.75273,4097
3.76012,4253
3.7675,4160
3.77487,3891
3.78225,3862
3.78962,3973
3.797,3701
3.80437,3802
3.81175,3868
3.81913,4168
3.8265,3936
3.83388,3870
3.84125,4158
3.84863,3646
3.856,3818
3.86338,4040
3.87077,4295
3.87813,4012
3.88552,4232
3.89288,4123
3.90027,3967
3.90765,4016
3.91502,3715
3.9224,3989
3.92977,3911
3.93715,4043
3.94452,3735
3.9519,3836
3.95928,4010
3.96665,4313
3.97403,4016
3.9814,4324
3.98878,4281
3.99617,4469
4.00353,4726
4.01092,4796
4.01828,4387
4.02567,4394
4.03303,4298
4.04042,4676
4.0478,4509
4.05517,4376
4.06255,4181
4.06992,4429
4.0773,4497
4.08468,4193
4.09205,4480
4.09943,4192
4.1068,4531
4.11418,4475
4.12155,4752
4.12893,4744
4.13632,4605
4.14368,4369
4.15107,4631
4.15843,4479
4.16582,4705
4.1732,4200
4.18057,4734
4.18795,4406
4.19532,4459
4.2027,4563
4.21007,4112
4.21745,4597
4.22483,4171
4.2322,4045
4.23958,4149
4.24695,3937
4.25433,4011
4.26172,3991
4.26908,3916
4.27647,3777
4.28383,4290
4.29122,3815
4.29858,3937
4.30597,3931
4.31335,3901
4.32072,4112
4.3281,3838
4.33547,3993
4.34285,3685
4.35023,3793
4.3576,4014
4.36498,4098
4.37235,3949
4.37973,3919
4.3871,3708
4.39448,3794
4.40187,3980
4.40923,3921
4.41662,3620
4.42398,3610
4.43137,3772
4.43873,3800
4.44612,3663
4.4535,3874
4.46087,3860
4.46825,3973
4.47562,4142
4.483,4039
4.49038,3977
4.49775,3565
4.50513,3783
4.5125,4049
4.51988,3787
4.52725,3625
4.53463,3526
4.54202,3740
4.54938,3809
4.55677,4077
4.56413,4220
4.57152,4320
4.5789,3789
4.58627,3851
4.59365,3517
4.60102,3713
4.6084,3490
4.61577,3453
4.62315,3352
4.63053,3417
4.6379,3468
4.64528,3765
4.65265,3716
4.66003,3613
4.66742,3423
4.67478,3539
4.68217,3580
4.68953,3743
4.69692,3638
4.70428,3574
4.71167,3677
4.71905,3479
4.72642,3468
4.7338,3763
4.74117,3657
4.74855,3583
4.75593,3749
4.7633,3903
4.77068,3540
4.77805,3650
4.78543,3425
4.7928,3835
4.80018,3834
4.80757,4004
4.81493,3686
4.82232,3939
4.82968,3678
4.83707,3815
4.84445,3980
4.85182,3890
4.8592,3827
4.86657,3663
4.87395,3977
4.88132,3768
4.8887,3948
4.89608,4244
4.90345,4126
4.91083,4192
4.9182,4253
4.92558,3891
4.93297,3654
4.94033,3700
4.94772,3511
4.95508,3553
4.96247,3380
4.96983,3747
4.97722,3273
4.9846,3379
4.99197,3472
4.99935,3497
5.00672,3832
5.0141,3548
5.02148,3781
5.02885,3806
5.03623,3811
5.0436,3914
5.05098,3512
5.05835,3460
5.06573,3576
5.07312,3755
5.08048,3814
5.08787,4267
5.09523,3778
5.10262,4064
5.10998,3583
5.11737,3720
5.12475,3861
5.13212,3533
5.1395,3610
5.14687,3342
5.15425,3920
5.16163,3759
5.169,3951
5.17638,3941
5.18375,4424
5.19113,4445
5.1985,4207
5.20588,3803
5.21327,3626
5.22063,3452
5.22802,3555
5.23538,4201
5.24277,4467
5.25015,4457
5.25752,4263
5.2649,4170
5.27227,3819
5.27965,3816
5.28702,4675
5.2944,5668
5.30178,6690
5.30915,5793
5.31653,5721
5.3239,5285
5.33128,4904
5.33867,4638
5.34603,4028
5.35342,4417
5.36078,4544
5.36817,4549
5.37553,4652
5.38292,4745
5.3903,4879
5.39767,5189
5.40505,5090
5.41242,4899
5.4198,5156
5.42718,4767
5.43455,4545
5.44193,4768
5.4493,4761
5.45668,4508
5.46405,4414
5.47143,4986
5.47882,4680
5.48618,3945
5.49357,4011
5.50093,4037
5.50832,4154
5.5157,4428
5.52307,5179
5.53045,6960
5.53782,8055
5.5452,6769
5.55257,5368
5.55995,4815
5.56733,4648
5.5747,5034
5.58208,5095
5.58945,6127
5.59683,6581
5.60422,5736
5.61158,7413
5.61897,9433
5.62633,7853
5.63372,6342
5.64108,6818
5.64847,8821
5.65585,13179
5.66322,12545
5.6706,9088
5.67797,6969
5.68535,7293
5.69272,6539
5.7001,5290
5.70748,4803
5.71485,4673
5.72223,6081
5.7296,11071
5.73698,14369
5.74437,10742
5.75173,6896
5.75912,5965
5.76648,5369
5.77387,5309
5.78123,5376
5.78862,5604
5.796,5953
5.80337,6582
5.81075,6577
5.81812,5961
5.8255,6003
5.83288,7182
5.84025,7588
5.84763,7055
5.855,6512
5.86238,6314
5.86975,5644
5.87713,5509
5.88452,5393
5.89188,5319
5.89927,4824
5.90663,5660
5.91402,8984
5.9214,11879
5.92877,11663
5.93615,10609
5.94352,8992
5.9509,9112
5.95827,9425
5.96565,9070
5.97303,7743
5.9804,6280
5.98778,5793
5.99515,7549
6.00253,8247
6.00992,6661
6.01728,5546
6.02467,6855
6.03203,8167
6.03942,7516
6.04678,7272
6.05417,12027
6.06155,29694
6.06892,34429
6.0763,20059
6.08367,10687
6.09105,7177
6.09843,5878
6.1058,5381
6.11318,5424
6.12055,6426
6.12793,6491
6.1353,6139
6.14268,4808
6.15007,4780
6.15743,4880
6.16482,5150
6.17218,5369
6.17957,6823
6.18695,8516
6.19432,9752
6.2017,8905
6.20907,10048
6.21645,10034
6.22382,8097
6.2312,6934
6.23858,7627
6.24595,10023
6.25333,9816
6.2607,9526
6.26808,12664
6.27545,15152
6.28283,11873
6.29022,7644
6.29758,7466
6.30497,11162
6.31233,17926
6.31972,16579
6.3271,9370
6.33447,6504
6.34185,7775
6.34922,9187
6.3566,10146
6.36397,11885
6.37135,13656
6.37873,17049
6.3861,16337
6.39348,11346
6.40085,7646
6.40823,7845
6.41562,8822
6.42298,11450
6.43037,12660
6.43773,9817
6.44512,9274
6.45248,17534
6.45987,28720
6.46725,23003
6.47462,17893
6.482,18856
6.48937,18486
6.49675,19311
6.50413,23999
6.5115,18355
6.51888,12426
6.52625,12344
6.53363,14324
6.541,14403
6.54838,11927
6.55577,7958
6.56313,6755
6.57052,7629
6.57788,9651
6.58527,12108
6.59265,17588
6.60002,14239
6.6074,13389
6.61477,15807
6.62215,20231
6.62952,28775
6.6369,26487
6.64428,17314
6.65165,13915
6.65903,14602
6.6664,21267
6.67378,24469
6.68117,21830
6.68853,40161
6.69592,64019
6.70328,43906
6.71067,16936
6.71803,12012
6.72542,22848
6.7328,55076
6.74017,59679
6.74755,26962
6.75492,11694
6.7623,11103
6.76968,21306
6.77705,64974
6.78443,110444
6.7918,68704
6.79918,33296
6.80655,28270
6.81393,27536
6.82132,28458
6.82868,24054
6.83607,21102
6.84343,39522
6.85082,95008
6.85818,95359
6.86557,44160
6.87295,32327
6.88032,31863
6.8877,21727
6.89507,13801
6.90245,12444
6.90983,18767
6.9172,23788
6.92458,25218
6.93195,24039
6.93933,21945
6.9467,19652
6.95408,20504
6.96147,22188
6.96883,21757
6.97622,20427
6.98358,21148
6.99097,15224
6.99835,17213
7.00572,22218
7.0131,22317
7.02047,22080
7.02785,27227
7.03522,41088
7.0426,51027
7.04998,53907
7.05735,53492
7.06473,43969
7.0721,45310
7.07948,54613
7.08687,51417
7.09423,47315
7.10162,39267
7.10898,43441
7.11637,59463
7.12373,65984
7.13112,47308
7.1385,34710
7.14587,28949
7.15325,42537
7.16062,162289
7.168,425202
7.17538,415080
7.18275,138595
7.19013,56943
7.1975,62727
7.20488,55796
7.21225,55808
7.21963,75470
7.22702,83690
7.23438,59790
7.24177,37720
7.24913,38307
7.25652,53758
7.2639,56220
7.27127,40753
7.27865,52326
7.28602,91776
7.2934,101565
7.30077,100213
7.30815,103280
7.31553,78277
7.3229,104005
7.33028,164932
7.33765,166721
7.34503,185873
7.35242,144621
7.35978,73992
7.36717,55180
7.37453,48976
7.38192,63199
7.38928,97442
7.39667,111895
7.40405,131627
7.41142,175186
7.4188,163502
7.42617,134931
7.43355,101979
7.44092,118255
7.4483,205460
7.45568,222560
7.46305,185449
7.47043,176627
7.4778,101155
7.48518,75896
7.49257,95377
7.49993,91417
7.50732,105560
7.51468,116408
7.52207,180588
7.52943,276167
7.53682,255044
7.5442,145321
7.55157,82749
7.55895,75512
7.56632,105300
7.5737,96048
7.58108,66836
7.58845,100984
7.59583,233334
7.6032,279286
7.61058,266511
7.61795,296915
7.62533,206120
7.63272,122037
7.64008,92168
7.64747,91179
7.65483,106043
7.66222,126298
7.6696,175770
7.67697,222509
7.68435,153695
7.69172,90527
7.6991,87015
7.70647,101833
7.71385,104588
7.72123,170588
7.7286,339250
7.73598,459883
7.74335,555842
7.75073,431086
7.75812,255625
7.76548,183562
7.77287,167486
7.78023,276381
7.78762,470370
7.79498,334153
7.80237,153938
7.80975,122711
7.81712,131798
7.8245,209149
7.83187,422242
7.83925,709454
7.84663,552854
7.854,253913
7.86138,131998
7.86875,79224
7.87613,78438
7.8835,88430
7.89088,111781
7.89827,261113
7.90563,557244
7.91302,479369
7.92038,182755
7.92777,118684
7.93515,135027
7.94252,148028
7.9499,122583
7.95727,85303
7.96465,83998
7.97202,97122
7.9794,120200
7.98678,112571
7.99415,99588
8.00153,114897
8.0089,101781
8.01628,85391
8.02365,68066
8.03103,59518
8.03842,66854
8.04578,77275
8.05317,79385
8.06053,80792
8.06792,76777
8.0753,75721
8.08267,68274
8.09005,71622
8.09742,99977
8.1048,140514
8.11217,155132
8.11955,160747
8.12693,158567
8.1343,136246
8.14168,149798
8.14905,184230
8.15643,184809
8.16382,148885
8.17118,119535
8.17857,115729
8.18593,143917
8.19332,244136
8.20068,538887
8.20807,524055
8.21545,182627
8.22282,98215
8.2302,102524
8.23757,130581
8.24495,113317
8.25233,72756
8.2597,71323
8.26708,76060
8.27445,69922
8.28183,68916
8.2892,68314
8.29658,75224
8.30397,63691
8.31133,47557
8.31872,81057
8.32608,155327
8.33347,176913
8.34085,89160
8.34822,58210
8.3556,39853
8.36297,44349
8.37035,60965
8.37772,53486
8.3851,47739
8.39248,45156
8.39985,53804
8.40723,70994
8.4146,69767
8.42198,46849
8.42937,31978
8.43673,32108
8.44412,29628
8.45148,31812
8.45887,55055
8.46623,75881
8.47362,72886
8.481,54741
8.48837,42532
8.49575,38960
8.50312,33637
8.5105,25054
8.51788,24481
8.52525,29371
8.53263,44138
8.54,51515
8.54738,36386
8.55475,25209
8.56213,29389
8.56952,31306
8.57688,28922
8.58427,38675
8.59163,60375
8.59902,71372
8.60638,56449
8.61377,32904
8.62115,23520
8.62852,23509
8.6359,26003
8.64327,38660
8.65065,60566
8.65803,71612
8.6654,59202
8.67278,33382
8.68015,24804
8.68753,25701
8.6949,34807
8.70228,51922
8.70967,47471
8.71703,41551
8.72442,55308
8.73178,49511
8.73917,50984
8.74655,70204
8.75392,87949
8.7613,135174
8.76867,201111
8.77605,195097
8.78342,100612
8.7908,56464
8.79818,44646
8.80555,45479
8.81293,53966
8.8203,79855
8.82768,101180
8.83507,71602
8.84243,44263
8.84982,34709
8.85718,32254
8.86457,35952
8.87193,53676
8.87932,73155
8.8867,99523
8.89407,116594
8.90145,91601
8.90882,55122
8.9162,34920
8.92358,33425
8.93095,39263
8.93833,57345
8.9457,72845
8.95308,58759
8.96045,42574
8.96783,35628
8.97522,34350
8.98258,35613
8.98997,36926
8.99733,38129
9.00472,35340
9.0121,32783
9.01947,34975
9.02685,41532
9.03422,45120
9.0416,43610
9.04897,43119
9.05635,38881
9.06373,31517
9.0711,28485
9.07848,37599
9.08585,44176
9.09323,47329
9.10062,50015
9.10798,57165
9.11537,57865
9.12273,55310
9.13012,62543
9.13748,68856
9.14487,77610
9.15225,96731
9.15962,159637
9.167,370963
9.17437,447523
9.18175,196718
9.18912,102359
9.1965,81919
9.20388,58839
9.21125,54295
9.21863,55179
9.226,62392
9.23338,63855
9.24077,60070
9.24813,65936
9.25552,72766
9.26288,85284
9.27027,92668
9.27763,82329
9.28502,81473
9.2924,75614
9.29977,75815
9.30715,82339
9.31452,105593
9.3219,131846
9.32928,123355
9.33665,82946
9.34403,60187
9.3514,54246
9.35878,69877
9.36615,82373
9.37353,85349
9.38092,66855
9.38828,54206
9.39567,62198
9.40303,69717
9.41042,75352
9.4178,84905
9.42517,100687
9.43255,90310
9.43992,68073
9.4473,86379
9.45467,123539
9.46205,119890
9.46943,109790
9.4768,124935
9.48418,126518
9.49155,101403
9.49893,80153
9.50632,90730
9.51368,117276
9.52107,106828
9.52843,78507
9.53582,69088
9.54318,77626
9.55057,102569
9.55795,103442
9.56532,93299
9.5727,87298
9.58007,93755
9.58745,98052
9.59483,100219
9.6022,99949
9.60958,93466
9.61695,112294
9.62433,185536
9.6317,237409
9.63908,222400
9.64647,175435
9.65383,177741
9.66122,162544
9.66858,130420
9.67597,124890
9.68335,122890
9.69072,129741
9.6981,187640
9.70547,227401
9.71285,157840
9.72022,112053
9.7276,99703
9.73498,97315
9.74235,112108
9.74973,182528
9.7571,270689
9.76448,216737
9.77185,137824
9.77923,123531
9.78662,124238
9.79398,135273
9.80137,173522
9.80873,200913
9.81612,250058
9.8235,252362
9.83087,198075
9.83825,191992
9.84562,146387
9.853,144057
9.86037,216831
9.86775,231240
9.87513,146253
9.8825,124345
9.88988,127652
9.89725,127788
9.90463,150919
9.91202,167826
9.91938,157424
9.92677,140735
9.93413,126976
9.94152,111981
9.94888,106777
9.95627,114859
9.96365,127354
9.97102,129524
9.9784,130207
9.98577,147953
9.99315,153699
10.0005,144326
10.0079,140811
10.0153,141260
10.0227,150654
10.03,151743
10.0374,144404
10.0448,158819
10.0522,171113
10.0595,170234
10.0669,209419
10.0743,523446
10.0817,1130764
10.0891,1258533
10.0964,555818
10.1038,362433
10.1112,295702
10.1186,198173
10.1259,165620
10.1333,151734
10.1407,177530
10.1481,249986
10.1554,291913
10.1628,258093
10.1702,236685
10.1776,244052
10.1849,225153
10.1923,209195
10.1997,204805
10.2071,229940
10.2144,226320
10.2218,198184
10.2292,194255
10.2366,196079
10.244,195364
10.2513,182348
10.2587,176566
10.2661,208305
10.2735,226633
10.2808,216224
10.2882,198740
10.2956,191983
10.303,176206
10.3103,162269
10.3177,188528
10.3251,208160
10.3325,211502
10.3398,233496
10.3472,222915
10.3546,222176
10.362,233187
10.3694,234710
10.3767,256689
10.3841,258819
10.3915,242565
10.3989,211912
10.4062,186091
10.4136,175536
10.421,229712
10.4284,287146
10.4357,291251
10.4431,253501
10.4505,202639
10.4579,196348
10.4652,235913
10.4726,255443
10.48,239786
10.4874,289046
10.4948,356394
10.5021,402768
10.5095,377194
10.5169,325711
10.5243,337920
10.5316,407238
10.539,341097
10.5464,290303
10.5538,375310
10.5611,430595
10.5685,378710
10.5759,379793
10.5833,409520
10.5906,358324
10.598,424034
10.6054,527464
10.6128,418414
10.6201,285190
10.6275,343068
10.6349,461088
10.6423,488645
10.6497,285579
10.657,249434
10.6644,231673
10.6718,210361
10.6792,217563
10.6865,345903
10.6939,509057
10.7013,424082
10.7087,280713
10.716,247859
10.7234,214565
10.7308,212093
10.7382,249022
10.7455,280964
10.7529,259488
10.7603,255123
10.7677,281291
10.7751,291095
10.7824,280757
10.7898,271830
10.7972,262947
10.8046,245183
10.8119,226696
10.8193,209822
10.8267,225312
10.8341,234265
10.8414,227895
10.8488,243414
10.8562,277866
10.8636,292591
10.8709,302456
10.8783,268805
10.8857,239406
10.8931,246294
10.9005,258010
10.9078,267331
10.9152,288679
10.9226,346005
10.93,502735
10.9373,984289
10.9447,1830041
10.9521,2175303
10.9595,751176
10.9668,515115
10.9742,515797
10.9816,455679
10.989,452902
10.9963,487655
11.0037,529735
11.0111,573408
11.0185,570481
11.0258,501440
11.0332,475709
11.0406,485007
11.048,443673
11.0554,406533
11.0627,378195
11.0701,354672
11.0775,336989
11.0849,318552
11.0922,296254
11.0996,292543
11.107,325580
11.1144,338972
11.1217,322423
11.1291,273811
11.1365,265713
11.1439,274298
11.1512,274183
11.1586,272483
11.166,298034
11.1734,316884
11.1808,310962
11.1881,297093
11.1955,279897
11.2029,253842
11.2103,224122
11.2176,251734
11.225,311963
11.2324,311372
11.2398,267054
11.2471,248567
11.2545,268158
11.2619,309298
11.2693,332161
11.2766,334776
11.284,342288
11.2914,314850
11.2988,310175
11.3062,361452
11.3135,451683
11.3209,479590
11.3283,507623
11.3357,507101
11.343,369639
11.3504,317818
11.3578,436183
11.3652,509843
11.3725,401895
11.3799,301891
11.3873,283571
11.3947,307153
11.402,370868
11.4094,503113
11.4168,529726
11.4242,376300
11.4316,351098
11.4389,395167
11.4463,397071
11.4537,488949
11.4611,609825
11.4684,550784
11.4758,433637
11.4832,384406
11.4906,363520
11.4979,343416
11.5053,344903
11.5127,415617
11.5201,555682
11.5274,521866
11.5348,359282
11.5422,310144
11.5496,309312
11.5569,326958
11.5643,324198
11.5717,324613
11.5791,331794
11.5865,338651
11.5938,366266
11.6012,363459
11.6086,322242
11.616,291379
11.6233,307241
11.6307,313354
11.6381,327954
11.6455,339810
11.6528,343255
11.6602,337145
11.6676,338717
11.675,334639
11.6823,326561
11.6897,295935
11.6971,282682
11.7045,294163
11.7119,333771
11.7192,350304
11.7266,367535
11.734,369733
11.7414,452223
11.7487,933406
11.7561,1730060
11.7635,1670361
11.7709,651102
11.7782,406452
11.7856,359166
11.793,358465
11.8004,461258
11.8077,534211
11.8151,522838
11.8225,449881
11.8299,439393
11.8373,479392
11.8446,457263
11.852,381740
11.8594,391421
11.8668,428641
11.8741,393287
11.8815,368964
11.8889,371371
11.8963,353811
11.9036,392544
11.911,450476
11.9184,449839
11.9258,393326
11.9331,374643
11.9405,367793
11.9479,354376
11.9553,339656
11.9626,369926
11.97,397972
11.9774,384371
11.9848,418849
11.9922,379725
11.9995,384184
12.0069,402084
12.0143,399000
12.0217,438207
12.029,417820
12.0364,356597
12.0438,325889
12.0512,328286
12.0585,350562
12.0659,376920
12.0733,395184
12.0807,416035
12.088,534909
12.0954,717812
12.1028,726672
12.1102,806333
12.1176,824326
12.1249,712564
12.1323,484701
12.1397,503592
12.1471,654754
12.1544,609742
12.1618,453813
12.1692,399710
12.1766,420803
12.1839,491414
12.1913,589721
12.1987,665377
12.2061,536849
12.2134,402749
12.2208,387536
12.2282,446693
12.2356,546475
12.243,725303
12.2503,710319
12.2577,647755
12.2651,577233
12.2725,500813
12.2798,466411
12.2872,467227
12.2946,528661
12.302,658713
12.3093,594599
12.3167,417335
12.3241,368131
12.3315,353083
12.3388,352511
12.3462,359073
12.3536,362055
12.361,323456
12.3683,319119
12.3757,329502
12.3831,358487
12.3905,368713
12.3979,352933
12.4052,374196
12.4126,419389
12.42,430107
12.4274,410782
12.4347,398174
12.4421,351078
12.4495,314020
12.4569,313312
12.4642,325187
12.4716,331971
12.479,354544
12.4864,368430
12.4937,367115
12.5011,362884
12.5085,409949
12.5159,744843
12.5233,1374350
12.5306,1475551
12.538,692346
12.5454,484750
12.5528,549069
12.5601,562892
12.5675,549083
12.5749,636182
12.5823,651706
12.5896,514224
12.597,457022
12.6044,458390
12.6118,452137
12.6191,447073
12.6265,442759
12.6339,420004
12.6413,391570
12.6487,360964
12.656,332004
12.6634,330119
12.6708,395444
12.6782,449616
12.6855,430644
12.6929,381410
12.7003,349857
12.7077,328791
12.715,351915
12.7224,392734
12.7298,385287
12.7372,383973
12.7445,372046
12.7519,339652
12.7593,327515
12.7667,349179
12.774,365305
12.7814,350016
12.7888,325354
12.7962,315582
12.8036,317800
12.8109,324350
12.8183,348894
12.8257,427062
12.8331,570738
12.8404,647551
12.8478,589437
12.8552,462784
12.8626,462214
12.8699,450232
12.8773,379280
12.8847,391741
12.8921,471309
12.8994,494999
12.9068,408024
12.9142,336706
12.9216,325621
12.929,359856
12.9363,473246
12.9437,618782
12.9511,541652
12.9585,388212
12.9658,340073
12.9732,337832
12.9806,405426
12.988,517315
12.9953,455450
13.0027,389483
13.0101,352878
13.0175,341101
13.0248,352326
13.0322,395495
13.0396,445556
13.047,490362
13.0544,418055
13.0617,368199
13.0691,387315
13.0765,422236
13.0839,464070
13.0912,454364
13.0986,385465
13.106,368235
13.1134,389566
13.1207,442592
13.1281,464579
13.1355,431089
13.1429,385346
13.1502,376277
13.1576,362044
13.165,352945
13.1724,363805
13.1798,363164
13.1871,349604
13.1945,364464
13.2019,396728
13.2093,369761
13.2166,351942
13.224,338561
13.2314,345758
13.2388,379644
13.2461,679806
13.2535,1148352
13.2609,1027529
13.2683,493312
13.2756,393725
13.283,437011
13.2904,474659
13.2978,539294
13.3051,543796
13.3125,440843
13.3199,389680
13.3273,396227
13.3347,399589
13.342,381725
13.3494,396436
13.3568,386856
13.3642,339579
13.3715,336218
13.3789,362986
13.3863,385792
13.3937,371221
13.401,355843
13.4084,330279
13.4158,298356
13.4232,300147
13.4305,340532
13.4379,334745
13.4453,321654
13.4527,327888
13.4601,314604
13.4674,311002
13.4748,328453
13.4822,345588
13.4896,324837
13.4969,306530
13.5043,292784
13.5117,278681
13.5191,280795
13.5264,314169
13.5338,388439
13.5412,471979
13.5486,473517
13.5559,459318
13.5633,452908
13.5707,430524
13.5781,380613
13.5855,325177
13.5928,307917
13.6002,358205
13.6076,383811
13.615,326617
13.6223,278696
13.6297,272732
13.6371,287223
13.6445,339543
13.6518,400873
13.6592,350623
13.6666,290992
13.674,259815
13.6813,253690
13.6887,299108
13.6961,349075
13.7035,318559
13.7108,300707
13.7182,287989
13.7256,271274
13.733,261524
13.7404,273747
13.7477,324440
13.7551,356665
13.7625,326035
13.7699,297036
13.7772,287375
13.7846,279898
13.792,276221
13.7994,285290
13.8067,285324
13.8141,289038
13.8215,287280
13.8289,286591
13.8362,290404
13.8436,292489
13.851,275542
13.8584,265609
13.8658,276659
13.8731,286801
13.8805,273383
13.8879,272552
13.8953,278847
13.9026,262794
13.91,253970
13.9174,254363
13.9248,241453
13.9321,258067
13.9395,388759
13.9469,586224
13.9543,513862
13.9616,336666
13.969,300915
13.9764,266897
13.9838,253309
13.9912,257538
13.9985,250895
14.0059,261275
14.0133,280959
14.0207,281928
14.028,256021
14.0354,238986
14.0428,230863
14.0502,222194
14.0575,236496
14.0649,255171
14.0723,233297
14.0797,226134
14.087,234407
14.0944,218642
14.1018,208190
14.1092,201085
14.1165,199900
14.1239,197767
14.1313,247591
14.1387,248865
14.1461,201936
14.1534,186572
14.1608,193955
14.1682,207581
14.1756,213295
14.1829,205075
14.1903,198153
14.1977,214561
14.2051,253158
14.2124,269737
14.2198,242980
14.2272,248364
14.2346,239688
14.2419,222877
14.2493,212036
14.2567,190633
14.2641,191675
14.2715,215723
14.2788,209743
14.2862,181009
14.2936,176639
14.301,174235
14.3083,187062
14.3157,206167
14.3231,205234
14.3305,182687
14.3378,166268
14.3452,165769
14.3526,185387
14.36,196877
14.3673,180395
14.3747,175407
14.3821,167311
14.3895,158204
14.3969,153672
14.4042,173479
14.4116,213886
14.419,204699
14.4264,175330
14.4337,168373
14.4411,161813
14.4485,169431
14.4559,174219
14.4632,169184
14.4706,171956
14.478,172437
14.4854,172402
14.4927,168536
14.5001,169116
14.5075,159716
14.5149,153814
14.5223,152647
14.5296,163227
14.537,164850
14.5444,156972
14.5518,154607
14.5591,143056
14.5665,143551
14.5739,195622
14.5813,283280
14.5886,258615
14.596,178599
14.6034,153595
14.6108,144048
14.6181,147189
14.6255,145754
14.6329,151706
14.6403,151278
14.6476,146766
14.655,137815
14.6624,141607
14.6698,143277
14.6772,140159
14.6845,139645
14.6919,127829
14.6993,128264
14.7067,127428
14.714,123591
14.7214,120370
14.7288,117263
14.7362,111855
14.7435,109925
14.7509,110509
14.7583,109538
14.7657,113542
14.773,115512
14.7804,109617
14.7878,113305
14.7952,121838
14.8026,148448
14.8099,147689
14.8173,129216
14.8247,121576
14.8321,122413
14.8394,125831
14.8468,117194
14.8542,107829
14.8616,109852
14.8689,114507
14.8763,120045
14.8837,137175
14.8911,133641
14.8984,121833
14.9058,116190
14.9132,108790
14.9206,94543
14.928,92697
14.9353,99902
14.9427,105083
14.9501,98548
14.9575,94994
14.9648,93767
14.9722,90402
14.9796,95633
14.987,110022
14.9943,111505
15.0017,100801
15.0091,92839
15.0165,91723
15.0238,88502
15.0312,88000
15.0386,89933
15.046,91989
15.0533,97778
15.0607,91847
15.0681,85892
15.0755,81289
15.0829,78686
15.0902,76862
15.0976,84344
15.105,89019
15.1124,83275
15.1197,75256
15.1271,84376
15.1345,165520
15.1419,176799
15.1492,132204
15.1566,103629
15.164,111188
15.1714,107569
15.1787,113421
15.1861,104847
15.1935,99331
15.2009,97166
15.2083,83796
15.2156,73697
15.223,69840
15.2304,65285
15.2378,65914
15.2451,70102
15.2525,72202
15.2599,70546
15.2673,64614
15.2746,62048
15.282,62553
15.2894,62041
15.2968,60977
15.3041,58324
15.3115,58056
15.3189,60924
15.3263,68733
15.3337,72186
15.341,65425
15.3484,64157
15.3558,63343
15.3632,64647
15.3705,60339
15.3779,55313
15.3853,54590
15.3927,58239
15.4,55749
15.4074,51786
15.4148,48745
15.4222,52735
15.4295,53738
15.4369,48523
15.4443,47476
15.4517,52300
15.459,54244
15.4664,51397
15.4738,48470
15.4812,48671
15.4886,49542
15.4959,51249
15.5033,52013
15.5107,49153
15.5181,45974
15.5254,46052
15.5328,45727
15.5402,47252
15.5476,44787
15.5549,42846
15.5623,42472
15.5697,40980
15.5771,40940
15.5844,41501
15.5918,40979
15.5992,40925
15.6066,37978
15.614,37952
15.6213,42757
15.6287,56293
15.6361,54692
15.6435,41809
15.6508,36597
15.6582,36630
15.6656,40575
15.673,41878
15.6803,38885
15.6877,37520
15.6951,35976
15.7025,33719
15.7098,34062
15.7172,34487
15.7246,31300
15.732,30328
15.7394,30313
15.7467,30226
15.7541,28836
15.7615,29371
15.7689,30557
15.7762,29640
15.7836,28887
15.791,31637
15.7984,32708
15.8057,32658
15.8131,32255
15.8205,30648
15.8279,29542
15.8352,29449
15.8426,27292
15.85,28960
15.8574,27486
15.8647,26189
15.8721,25261
15.8795,25312
15.8869,25784
15.8943,25089
15.9016,23317
15.909,24722
15.9164,26533
15.9238,26200
15.9311,24823
15.9385,23605
15.9459,24208
15.9533,24356
15.9606,24934
15.968,23562
15.9754,23288
15.9828,23493
15.9901,24140
15.9975,23900
16.0049,22569
16.0123,21222
16.0196,21655
16.027,21220
16.0344,21847
16.0418,20890
16.0492,20717
16.0565,19621
16.0639,20308
16.0713,24661
16.0787,26165
16.086,20374
16.0934,19884
16.1008,19680
16.1082,21047
16.1155,20180
16.1229,18607
16.1303,18168
16.1377,19473
16.1451,18202
16.1524,18210
16.1598,17153
16.1672,16947
16.1746,16767
16.1819,16108
16.1893,16148
16.1967,15809
16.204,16648
16.2114,15869
16.2188,16464
16.2262,18787
16.2336,17105
16.2409,15836
16.2483,15639
16.2557,15477
16.2631,15454
16.2705,15237
16.2778,15392
16.2852,14605
16.2926,14337
16.2999,13698
16.3073,13503
16.3147,13835
16.3221,14499
16.3295,14227
16.3368,14282
16.3442,13666
16.3516,14239
16.359,13873
16.3663,13905
16.3737,13841
16.3811,13687
16.3885,13609
16.3958,13099
16.4032,13120
16.4106,12656
16.418,12690
16.4254,12358
16.4327,12643
16.4401,12072
16.4475,11746
16.4549,11700
16.4622,11582
16.4696,12014
16.477,11283
16.4843,15383
16.4917,15043
16.4991,15196
16.5065,15407
16.5139,16778
16.5212,17456
16.5286,16152
16.536,14493
16.5434,14826
16.5508,14725
16.5581,14513
16.5655,14194
16.5729,14679
16.5802,13024
16.5876,11210
16.595,10396
16.6024,10060
16.6097,10126
16.6171,9967
16.6245,9587
16.6319,10472
16.6393,9829
16.6466,9835
16.654,10355
16.6614,10302
16.6688,10054
16.6762,10665
16.6835,10113
16.6909,10425
16.6983,10089
16.7056,9971
16.713,9280
16.7204,9662
16.7278,9164
16.7352,9379
16.7425,8841
16.7499,9371
16.7573,8944
16.7647,8652
16.772,8886
16.7794,9280
16.7868,8690
16.7942,8725
16.8015,8773
16.8089,8980
16.8163,9619
16.8237,9478
16.8311,9328
16.8384,9079
16.8458,9108
16.8532,8904
16.8606,9123
16.8679,8936
16.8753,8840
16.8827,8393
16.89,8503
16.8974,8794
16.9048,8067
16.9122,8347
16.9196,8197
16.9269,8080
16.9343,7469
16.9417,8198
16.9491,7680
16.9565,7602
16.9638,8201
16.9712,8104
16.9786,8059
16.9859,7828
16.9933,8339
17.0007,8589
17.0081,8726
17.0155,8143
17.0228,8364
17.0302,8294
17.0376,8035
17.045,8126
17.0523,8444
17.0597,8080
17.0671,8154
17.0745,8297
17.0818,8165
17.0892,8208
17.0966,8084
17.104,7506
17.1114,8484
17.1187,7946
17.1261,8054
17.1335,7814
17.1409,7829
17.1482,7684
17.1556,7847
17.163,8117
17.1704,8050
17.1777,8505
17.1851,9478
17.1925,10795
17.1999,10772
17.2072,9940
17.2146,8974
17.222,8301
17.2294,7840
17.2368,7776
17.2441,7605
17.2515,7909
17.2589,7313
17.2662,7369
17.2736,7695
17.281,7159
17.2884,7337
17.2958,7303
17.3031,7527
17.3105,7668
17.3179,7478
17.3253,7718
17.3326,7357
17.34,7404
17.3474,7250
17.3548,7274
17.3622,7475
17.3695,7331
17.3769,7606
17.3843,7627
17.3916,7198
17.399,7639
17.4064,7875
17.4138,7792
17.4212,7905
17.4285,8080
17.4359,8851
17.4433,9036
17.4507,9430
17.458,9648
17.4654,10684
17.4728,10821
17.4802,11138
17.4876,11725
