D:\Data GC-MS\2021\7 JULY\06-07-21\SPME 34690-21-1 YKK.D 06 Jul 21  11:20 am
Start of data points
1.29392,117555
1.30067,113050
1.30742,107234
1.31415,102783
1.3209,98346
1.32763,94730
1.33438,91084
1.34112,87571
1.34787,87141
1.35462,85017
1.36135,83281
1.3681,81423
1.37483,79959
1.38158,78690
1.38832,78070
1.39507,77814
1.40182,77314
1.40855,77315
1.4153,77567
1.42203,78028
1.42878,78032
1.43552,78044
1.44227,77911
1.44902,77762
1.45575,77346
1.4625,76816
1.46923,76008
1.47598,76514
1.48272,75997
1.48947,75019
1.51033,179479
1.5177,176659
1.52508,174097
1.53245,172343
1.53983,170346
1.54722,169127
1.55458,168462
1.56197,166598
1.56933,163766
1.57672,164814
1.58408,161867
1.59147,157596
1.59885,157633
1.60622,156575
1.6136,156635
1.62097,154041
1.62835,155234
1.63573,153798
1.6431,153049
1.65048,151929
1.65785,149874
1.66523,149360
1.6726,148344
1.67998,149185
1.68737,148525
1.69473,148100
1.70212,147800
1.70948,158048
1.71687,190833
1.72425,197323
1.73162,197167
1.739,194898
1.74637,196115
1.75375,191087
1.76112,192928
1.7685,188942
1.77588,187273
1.78325,184611
1.79063,182678
1.798,179203
1.80538,177780
1.81277,177346
1.82013,174651
1.82752,171550
1.83488,169551
1.84227,169251
1.84963,165565
1.85702,163589
1.8644,163596
1.87177,163768
1.87915,162536
1.88652,160805
1.8939,157866
1.90127,156518
1.90865,152957
1.91603,151215
1.9234,150209
1.93078,149162
1.93815,147201
1.94553,144663
1.95292,143627
1.96028,142658
1.96767,139958
1.97503,138707
1.98242,136479
1.98978,135477
1.99717,132300
2.00455,132491
2.01192,129759
2.0193,126077
2.02667,126748
2.03405,122691
2.04143,123483
2.0488,122090
2.05618,122085
2.06355,119834
2.07093,118893
2.0783,117710
2.08568,117194
2.09307,116136
2.10043,112608
2.10782,114208
2.11518,111313
2.12257,110184
2.12995,111797
2.13732,109857
2.1447,108834
2.15207,107300
2.15945,106460
2.16682,106382
2.1742,103389
2.18158,104649
2.18895,102748
2.19633,101246
2.2037,100310
2.21108,99348
2.21847,98086
2.22583,97954
2.23322,97655
2.24058,96493
2.24797,93693
2.25533,94339
2.26272,94633
2.2701,94222
2.27747,94257
2.28485,94234
2.29222,96156
2.2996,95796
2.30698,98277
2.31435,98755
2.32173,98229
2.3291,98914
2.33648,96414
2.34385,96190
2.35123,94070
2.35862,93431
2.36598,90701
2.37337,90267
2.38073,90007
2.38812,88834
2.3955,86211
2.40287,84378
2.41025,82147
2.41762,82901
2.425,82112
2.43237,80959
2.43975,79352
2.44713,79303
2.4545,78270
2.46188,78115
2.46925,77344
2.47663,77199
2.484,77090
2.49138,75489
2.49877,75516
2.50613,75264
2.51352,75680
2.52088,74614
2.52827,73805
2.53565,75697
2.54302,73927
2.5504,72794
2.55777,71254
2.56515,71221
2.57252,70261
2.5799,71079
2.58728,71433
2.59465,71886
2.60203,69878
2.6094,69309
2.61678,69201
2.62417,69127
2.63153,70697
2.63892,67152
2.64628,70264
2.65367,68394
2.66103,68034
2.66842,67623
2.6758,66593
2.68317,65279
2.69055,66602
2.69792,65795
2.7053,66175
2.71268,65727
2.72005,67684
2.72743,66448
2.7348,65661
2.74218,66866
2.74955,64078
2.75693,65370
2.76432,212382
2.77168,436908
2.77907,231451
2.78643,133151
2.79382,105466
2.8012,90308
2.80857,84245
2.81595,79376
2.82332,76111
2.8307,73132
2.83807,69131
2.84545,69539
2.85283,68017
2.8602,68031
2.86758,67760
2.87495,65841
2.88233,66713
2.88972,64415
2.89708,64756
2.90447,64049
2.91183,64455
2.91922,63022
2.92658,62808
2.93397,63249
2.94135,62809
2.94872,62094
2.9561,62163
2.96347,62090
2.97085,61168
2.97823,60789
2.9856,59910
2.99298,61131
3.00035,59851
3.00773,59872
3.0151,58252
3.02248,60328
3.02987,60881
3.03723,59922
3.04462,60194
3.05198,59764
3.05937,58684
3.06673,59444
3.07412,57918
3.0815,57647
3.08887,58476
3.09625,56485
3.10362,55713
3.111,54920
3.11838,56381
3.12575,56655
3.13313,57189
3.1405,57485
3.14788,58105
3.15525,57571
3.16263,57072
3.17002,56711
3.17738,55803
3.18477,57123
3.19213,54460
3.19952,56785
3.2069,55992
3.21427,55530
3.22165,56766
3.22902,55027
3.2364,57241
3.24377,58867
3.25115,60428
3.25853,60196
3.2659,60976
3.27328,59823
3.28065,60398
3.28803,60568
3.29542,62066
3.30278,63538
3.31017,71358
3.31753,85400
3.32492,103919
3.33228,115108
3.33967,121549
3.34705,121480
3.35442,112882
3.3618,104089
3.36917,96637
3.37655,91149
3.38393,84687
3.3913,78538
3.39868,75529
3.40605,72227
3.41343,68659
3.4208,65605
3.42818,61932
3.43557,58713
3.44293,58173
3.45032,55943
3.45768,56082
3.46507,54433
3.47245,54023
3.47982,55699
3.4872,55406
3.49457,54474
3.50195,56855
3.50932,57615
3.5167,56711
3.52408,57815
3.53145,55968
3.53883,55679
3.5462,56154
3.55358,57507
3.56097,60901
3.56833,63192
3.57572,63969
3.58308,66060
3.59047,65555
3.59783,67064
3.60522,65212
3.6126,63789
3.61997,63564
3.62735,61751
3.63472,60084
3.6421,59760
3.64947,58493
3.65685,58449
3.66423,60717
3.6716,62421
3.67898,65368
3.68635,71878
3.69373,77638
3.70112,84064
3.70848,86354
3.71587,85602
3.72323,80678
3.73062,75484
3.73798,69201
3.74537,63253
3.75275,59331
3.76012,56601
3.7675,56651
3.77487,55951
3.78225,54935
3.78963,57904
3.797,62648
3.80438,64579
3.81175,65639
3.81913,64494
3.8265,61412
3.83388,57862
3.84127,54421
3.84863,54691
3.85602,56161
3.86338,58519
3.87077,62227
3.87815,65716
3.88552,66897
3.8929,67087
3.90027,64377
3.90765,62367
3.91502,60550
3.9224,59394
3.92978,58229
3.93715,58254
3.94453,59099
3.9519,63346
3.95928,63358
3.96667,62450
3.97403,61394
3.98142,58886
3.98878,59072
3.99617,59350
4.00353,58402
4.01092,57661
4.0183,58222
4.02567,59945
4.03305,64523
4.04042,68589
4.0478,71068
4.05518,71091
4.06255,70906
4.06993,69526
4.0773,68366
4.08468,68466
4.09205,68166
4.09943,70203
4.10682,76647
4.11418,81668
4.12157,84340
4.12893,86646
4.13632,87783
4.1437,87846
4.15107,86769
4.15845,81853
4.16582,78141
4.1732,83683
4.18057,99632
4.18795,113217
4.19533,116284
4.2027,109422
4.21008,96238
4.21745,86491
4.22483,76602
4.2322,71247
4.23958,70211
4.24697,70981
4.25433,69596
4.26172,66838
4.26908,61634
4.27647,59838
4.28385,56738
4.29122,55935
4.2986,57759
4.30597,59640
4.31335,59714
4.32072,58480
4.3281,56711
4.33548,53302
4.34285,52942
4.35023,50787
4.3576,54097
4.36498,61291
4.37237,75577
4.37973,84890
4.38712,89624
4.39448,88285
4.40187,84041
4.40923,81101
4.41662,79032
4.424,78181
4.43137,93584
4.43875,135866
4.44612,174897
4.4535,191945
4.46088,185921
4.46825,174278
4.47563,168872
4.483,159236
4.49038,131024
4.49775,105032
4.50513,89208
4.51252,91929
4.51988,102768
4.52727,109226
4.53463,132841
4.54202,216395
4.5494,333384
4.55677,414147
4.56415,412120
4.57152,351593
4.5789,254642
4.58627,183297
4.59365,134173
4.60103,99859
4.6084,84165
4.61578,77334
4.62315,74469
4.63053,67990
4.63792,65299
4.64528,62123
4.65267,66035
4.66003,79893
4.66742,94930
4.67478,96501
4.68217,90191
4.68955,81964
4.69692,79306
4.7043,92911
4.71167,119141
4.71905,122945
4.72643,110895
4.7338,102468
4.74118,117733
4.74855,150437
4.75593,173956
4.7633,173854
4.77068,156506
4.77807,134292
4.78543,131082
4.79282,181334
4.80018,326862
4.80757,574239
4.81493,793061
4.82232,925780
4.8297,973052
4.83707,843723
4.84445,617199
4.85182,426483
4.8592,289079
4.86658,213212
4.87395,163488
4.88133,177760
4.8887,341991
4.89608,572859
4.90345,592657
4.91083,439119
4.91822,269236
4.92558,167220
4.93297,127920
4.94033,128446
4.94772,137029
4.9551,140184
4.96247,135867
4.96985,122002
4.97722,107367
4.9846,92356
4.99197,82523
4.99935,81898
5.00673,94750
5.0141,127014
5.02148,161186
5.02885,211186
5.03623,234886
5.04362,207217
5.05098,150911
5.05837,103944
5.06573,100308
5.07312,136214
5.08048,174684
5.08787,212913
5.09525,247998
5.10262,228040
5.11,186864
5.11737,164128
5.12475,151918
5.13213,136657
5.1395,121966
5.14688,115833
5.15425,123446
5.16163,134831
5.169,163537
5.17638,254214
5.18377,483659
5.19113,934267
5.19852,1388186
5.20588,1317016
5.21327,840093
5.22065,432160
5.22802,222541
5.2354,189202
5.24277,258279
5.25015,300355
5.25752,274125
5.2649,232619
5.27228,210935
5.27965,191659
5.28703,239636
5.2944,495873
5.30178,792579
5.30917,801642
5.31653,628260
5.32392,495005
5.33128,413268
5.33867,310017
5.34603,216742
5.35342,190594
5.3608,266231
5.36817,495686
5.37555,720351
5.38292,718404
5.3903,534225
5.39767,379564
5.40505,306014
5.41243,284401
5.4198,273062
5.42718,252170
5.43455,236065
5.44193,237331
5.44932,236498
5.45668,227060
5.46407,229541
5.47143,253265
5.47882,242907
5.48618,182575
5.49357,123119
5.50095,90175
5.50832,89817
5.5157,119774
5.52307,203990
5.53045,380268
5.53783,711960
5.5452,1723264
5.55258,3594517
5.55995,4623955
5.56733,3594981
5.5747,1712615
5.58208,688237
5.58947,385951
5.59683,429694
5.60422,434584
5.61158,378926
5.61897,755108
5.62635,2102641
5.63372,5417007
5.6411,10348007
5.64847,13344774
5.65585,10476091
5.66322,5076223
5.6706,3593307
5.67798,5819646
5.68535,7453266
5.69273,5111576
5.7001,1900762
5.70748,639826
5.71487,341540
5.72223,483145
5.72962,2043367
5.73698,5317054
5.74437,7039755
5.75173,4647624
5.75912,1726653
5.7665,629540
5.77387,340285
5.78125,275790
5.78862,284736
5.796,311664
5.80338,407636
5.81075,494576
5.81813,436768
5.8255,392304
5.83288,748383
5.84025,2541314
5.84763,5631158
5.85502,6777738
5.86238,4191990
5.86977,1499787
5.87713,743406
5.88452,608732
5.8919,451318
5.89927,310982
5.90665,298664
5.91402,462745
5.9214,725921
5.92877,860315
5.93615,749796
5.94353,695469
5.9509,786623
5.95828,791297
5.96565,740484
5.97303,699502
5.98042,544471
5.98778,370393
5.99517,362036
6.00253,534799
6.00992,719045
6.01728,1579293
6.02467,5411920
6.03205,12003676
6.03942,18168300
6.0468,19686022
6.05417,7880064
6.06155,2694639
6.06892,4813039
6.0763,5073686
6.08368,2330226
6.09105,836318
6.09843,469540
6.1058,351513
6.11318,329623
6.12057,361567
6.12793,428552
6.13532,362525
6.14268,269657
6.15007,320989
6.15743,396795
6.16482,335672
6.1722,303757
6.17957,460141
6.18695,766556
6.19432,843848
6.2017,741566
6.20908,849411
6.21645,947270
6.22383,705319
6.2312,473659
6.23858,429495
6.24595,518791
6.25333,636070
6.26072,568868
6.26808,559967
6.27547,758340
6.28283,804174
6.29022,557269
6.2976,408285
6.30497,589481
6.31235,1559415
6.31972,2922900
6.3271,2435348
6.33447,1151592
6.34185,2072110
6.34923,5048193
6.3566,6187690
6.36398,3946639
6.37135,3794240
6.37873,6338418
6.38612,8987791
6.39348,11223476
6.40087,13263979
6.40823,14690799
6.41562,5829179
6.42298,909507
6.43037,855410
6.43775,1118172
6.44512,1158189
6.4525,869593
6.45987,1022060
6.46725,1346744
6.47463,1050908
6.482,938986
6.48938,1209560
6.49675,1148013
6.50413,1510210
6.5115,2436450
6.51888,2537052
6.52627,1734290
6.53363,1067482
6.54102,845521
6.54838,737506
6.55577,544680
6.56315,333666
6.57052,274715
6.5779,333433
6.58527,433780
6.59265,512216
6.60002,506809
6.6074,481943
6.61478,650123
6.62215,991371
6.62953,1564202
6.6369,1788915
6.64428,1260199
6.65165,943654
6.65903,1107323
6.66642,2067692
6.67378,2822835
6.68117,1750039
6.68853,1060115
6.69592,1568466
6.7033,1687279
6.71067,917977
6.71805,769611
6.72542,1722631
6.7328,3354417
6.74017,3853604
6.74755,2027952
6.75493,646288
6.7623,525814
6.76968,555043
6.77705,904030
6.78443,1892901
6.79182,2089163
6.79918,1020709
6.80657,717737
6.81393,858520
6.82132,1248752
6.82868,1674253
6.83607,2731990
6.84345,2755069
6.85082,1940769
6.8582,2133400
6.86557,1434830
6.87295,796773
6.88033,866015
6.8877,749856
6.89508,471792
6.90245,334723
6.90983,355203
6.9172,474383
6.92458,566020
6.93197,649059
6.93933,1066318
6.94672,1466076
6.95408,982355
6.96147,599341
6.96885,877874
6.97622,1478893
6.9836,1250689
6.99097,611187
6.99835,425486
7.00572,527399
7.0131,617785
7.02048,637367
7.02785,807617
7.03523,1268319
7.0426,2063289
7.04998,1917099
7.05737,1267019
7.06473,974057
7.07212,899105
7.07948,1160761
7.08687,1083386
7.09423,855846
7.10162,795644
7.109,747573
7.11637,896965
7.12375,1008267
7.13112,826258
7.1385,530790
7.14588,454582
7.15325,550372
7.16063,1242988
7.168,3536227
7.17538,5978034
7.18275,3877929
7.19013,1139777
7.19752,815245
7.20488,762603
7.21227,921854
7.21963,1249061
7.22702,1350008
7.23438,982503
7.24177,602473
7.24915,569362
7.25652,778601
7.2639,901779
7.27127,655802
7.27865,491930
7.28603,624181
7.2934,784859
7.30078,881999
7.30815,1053120
7.31553,947508
7.3229,795145
7.33028,856973
7.33767,859297
7.34503,1000082
7.35242,1014362
7.35978,786810
7.36717,681820
7.37455,583945
7.38192,543386
7.3893,856200
7.39667,1005211
7.40405,801638
7.41142,765037
7.4188,909589
7.42618,1617088
7.43355,2033182
7.44093,1382085
7.4483,1154444
7.45568,1059588
7.46307,786520
7.47043,705340
7.47782,528998
7.48518,409532
7.49257,445000
7.49993,444919
7.50732,472325
7.5147,497219
7.52207,560685
7.52945,763277
7.53682,771571
7.5442,580467
7.55158,432647
7.55895,439941
7.56633,562118
7.5737,693208
7.58108,642493
7.58845,582595
7.59583,1118417
7.60322,1553809
7.61058,1212666
7.61797,1204811
7.62533,1095298
7.63272,708421
7.6401,513743
7.64747,612778
7.65485,973178
7.66222,1138841
7.6696,942590
7.67697,898429
7.68435,696913
7.69173,477866
7.6991,451122
7.70648,468459
7.71385,447416
7.72123,555436
7.72862,870578
7.73598,1049938
7.74337,1197562
7.75073,1488273
7.75812,1709808
7.76548,1395781
7.77287,1204585
7.78025,984895
7.78762,973503
7.795,758400
7.80237,616051
7.80975,641282
7.81712,640988
7.8245,923138
7.83188,1434281
7.83925,1653519
7.84663,1095234
7.854,604264
7.86138,428011
7.86877,351857
7.87613,415179
7.88352,538612
7.89088,654843
7.89827,1121898
7.90563,1659461
7.91302,1231407
7.9204,559099
7.92777,398246
7.93515,422095
7.94252,464309
7.9499,464920
7.95728,349794
7.96465,307439
7.97203,365911
7.9794,494881
7.98678,509560
7.99415,382897
8.00153,423073
8.00892,464950
8.01628,400716
8.02367,312224
8.03103,300197
8.03842,402475
8.0458,648403
8.05317,1698693
8.06055,3660666
8.06792,5671903
8.0753,7788870
8.08267,8548276
8.09005,2379895
8.09743,821245
8.1048,785683
8.11218,837302
8.11955,854346
8.12693,847280
8.13432,753039
8.14168,681226
8.14907,750365
8.15643,893309
8.16382,909201
8.17118,919651
8.17857,752652
8.18595,599417
8.19332,891943
8.2007,2036485
8.20807,2405006
8.21545,1112754
8.22283,519508
8.2302,532456
8.23758,681014
8.24495,689615
8.25233,464259
8.2597,441916
8.26708,461205
8.27447,395224
8.28183,365827
8.28922,343083
8.29658,357704
8.30397,346547
8.31135,348644
8.31872,566810
8.3261,969415
8.33347,994778
8.34085,675267
8.34822,568631
8.3556,394257
8.36298,301545
8.37035,356974
8.37773,339514
8.3851,306507
8.39248,295199
8.39985,287414
8.40723,360076
8.41462,442039
8.42198,415224
8.42937,315451
8.43673,273801
8.44412,268671
8.4515,289178
8.45887,417077
8.46625,559701
8.47362,564322
8.481,439916
8.48837,356828
8.49575,342120
8.50313,350678
8.5105,287526
8.51788,249608
8.52525,293271
8.53263,379738
8.54002,447620
8.54738,385654
8.55477,289148
8.56213,323858
8.56952,382799
8.57688,344245
8.58427,346399
8.59165,425133
8.59902,504690
8.6064,525545
8.61377,396902
8.62115,287415
8.62853,258481
8.6359,249204
8.64328,320819
8.65065,510246
8.65803,616144
8.6654,528297
8.67278,375565
8.68017,278743
8.68753,266304
8.69492,315303
8.70228,417201
8.70967,413207
8.71705,330091
8.72442,395460
8.7318,418998
8.73917,419924
8.74655,499661
8.75392,505142
8.7613,515349
8.76868,762737
8.77605,998611
8.78343,817945
8.7908,535827
8.79818,416587
8.80557,391581
8.81293,420860
8.82032,560771
8.82768,749989
8.83507,637534
8.84243,424677
8.84982,338940
8.8572,350922
8.86457,424988
8.87195,471068
8.87932,528828
8.8867,1236404
8.89408,3434829
8.90145,5819961
8.90883,3881919
8.9162,945859
8.92358,440201
8.93095,413577
8.93833,508868
8.94572,693643
8.95308,651668
8.96047,467580
8.96783,364210
8.97522,330740
8.98258,338055
8.98997,341628
8.99735,365676
9.00472,356081
9.0121,321110
9.01947,299808
9.02685,324830
9.03423,378060
9.0416,378528
9.04898,389485
9.05635,388952
9.06373,334065
9.0711,292797
9.07848,332783
9.08587,405128
9.09323,448530
9.10062,452461
9.10798,492125
9.11537,504746
9.12275,486367
9.13012,511877
9.1375,543023
9.14487,531114
9.15225,587853
9.15962,766676
9.167,1431439
9.17438,1924782
9.18175,1267966
9.18913,853530
9.1965,708052
9.20388,507223
9.21127,401171
9.21863,410437
9.22602,457422
9.23338,465325
9.24077,444851
9.24813,466763
9.25552,564818
9.2629,646540
9.27027,651282
9.27765,565969
9.28502,500766
9.2924,490249
9.29978,410793
9.30715,387978
9.31453,433570
9.3219,513848
9.32928,593526
9.33665,526875
9.34403,498278
9.35142,485775
9.35878,483816
9.36617,547708
9.37353,539189
9.38092,451714
9.3883,364842
9.39567,373301
9.40305,418619
9.41042,496497
9.4178,543965
9.42517,584907
9.43255,569424
9.43993,458271
9.4473,455751
9.45468,632083
9.46205,686453
9.46943,625174
9.47682,637353
9.48418,650305
9.49157,570489
9.49893,471048
9.50632,476699
9.51368,671743
9.52107,1079025
9.52845,1245624
9.53582,896666
9.5432,600269
9.55057,624801
9.55795,681589
9.56532,589541
9.5727,495158
9.58008,504184
9.58745,560943
9.59483,584869
9.6022,588500
9.60958,562975
9.61697,541893
9.62433,729202
9.63172,1030958
9.63908,1182845
9.64647,1192478
9.65383,1261839
9.66122,958157
9.6686,700106
9.67597,668073
9.68335,639480
9.69072,644270
9.6981,778725
9.70548,914153
9.71285,745504
9.72023,579778
9.7276,564082
9.73498,567083
9.74235,600241
9.74973,726856
9.75712,995731
9.76448,935203
9.77187,711312
9.77923,688896
9.78662,663820
9.794,697348
9.80137,916619
9.80875,1037383
9.81612,1010175
9.8235,1029587
9.83087,1014935
9.83825,1048081
9.84563,852073
9.853,748305
9.86038,1057000
9.86775,1292871
9.87513,914293
9.88252,721696
9.88988,741056
9.89727,734764
9.90463,807828
9.91202,911358
9.91938,832587
9.92677,734948
9.93415,697878
9.94152,652264
9.9489,656715
9.95627,673953
9.96365,700650
9.97103,676399
9.9784,623422
9.98578,684576
9.99315,768243
10.0005,808823
10.0079,886473
10.0153,924049
10.0227,857192
10.03,805875
10.0374,777654
10.0448,814184
10.0522,824551
10.0596,851582
10.0669,966979
10.0743,1875213
10.0817,3791004
10.0891,3967911
10.0964,2202182
10.1038,1642295
10.1112,1426005
10.1186,1050975
10.1259,863319
10.1333,781421
10.1407,850380
10.1481,1128502
10.1554,1321096
10.1628,1203327
10.1702,1103867
10.1776,1077182
10.1849,985050
10.1923,819341
10.1997,832365
10.2071,1019424
10.2145,1117812
10.2218,1053631
10.2292,1025328
10.2366,1045424
10.244,1041073
10.2513,927061
10.2587,862554
10.2661,994622
10.2735,1128439
10.2808,1135555
10.2882,1108082
10.2956,1089211
10.303,1009103
10.3103,886817
10.3177,897691
10.3251,950115
10.3325,1013957
10.3399,1180182
10.3472,1227786
10.3546,1166292
10.362,1207126
10.3694,1151141
10.3767,1127963
10.3841,1182436
10.3915,1197475
10.3989,1115554
10.4062,1067771
10.4136,1005895
10.421,1109570
10.4284,1333001
10.4357,1398992
10.4431,1324705
10.4505,1229240
10.4579,1107686
10.4653,1164990
10.4726,1177954
10.48,1112619
10.4874,1232002
10.4948,1499837
10.5021,1705712
10.5095,1739758
10.5169,1568085
10.5243,1615407
10.5316,1887795
10.539,1775360
10.5464,1516924
10.5538,1770645
10.5611,2038573
10.5685,1954344
10.5759,1702383
10.5833,1781491
10.5906,1675045
10.598,1934927
10.6054,2665236
10.6128,2451222
10.6202,1675983
10.6275,1560471
10.6349,1938530
10.6423,1874545
10.6497,1521924
10.657,1350294
10.6644,1235856
10.6718,1180273
10.6792,1407514
10.6865,2080931
10.6939,2533844
10.7013,2237674
10.7087,1794763
10.716,1930528
10.7234,1973893
10.7308,1600911
10.7382,1459011
10.7456,1534275
10.7529,1490533
10.7603,1363905
10.7677,1467151
10.7751,1679244
10.7824,1650819
10.7898,1697317
10.7972,1647924
10.8046,1566574
10.8119,1426008
10.8193,1308828
10.8267,1336862
10.8341,1397608
10.8414,1380867
10.8488,1428844
10.8562,1526559
10.8636,1566272
10.871,1629872
10.8783,1634367
10.8857,1491854
10.8931,1472117
10.9005,1583354
10.9078,1645553
10.9152,1743520
10.9226,1869112
10.93,2291284
10.9373,3830072
10.9447,6586811
10.9521,7346119
10.9595,3456239
10.9668,2183129
10.9742,2254578
10.9816,2107247
10.989,1942539
10.9963,1916619
11.0037,2034864
11.0111,2102014
11.0185,2170898
11.0259,2118266
11.0332,2045214
11.0406,2059935
11.048,2085798
11.0554,1941008
11.0627,1854444
11.0701,1986980
11.0775,1952788
11.0849,1816265
11.0922,1815111
11.0996,1841267
11.107,1875829
11.1144,2024382
11.1217,2114776
11.1291,1908721
11.1365,1721333
11.1439,1665021
11.1513,1640897
11.1586,1637303
11.166,1806869
11.1734,1922820
11.1808,1864131
11.1881,1862599
11.1955,1918385
11.2029,1888202
11.2103,1641745
11.2176,1639644
11.225,1913155
11.2324,2093327
11.2398,1893588
11.2471,1677538
11.2545,1649325
11.2619,1791020
11.2693,1936813
11.2767,1951377
11.284,1996256
11.2914,2042038
11.2988,1983072
11.3062,2082419
11.3135,2310078
11.3209,2517961
11.3283,2658143
11.3357,2855689
11.343,2531399
11.3504,2162795
11.3578,2409899
11.3652,2876885
11.3725,2893735
11.3799,2451795
11.3873,2138924
11.3947,2124882
11.402,2294432
11.4094,2689858
11.4168,3109562
11.4242,2787820
11.4316,2501350
11.4389,2981007
11.4463,2891468
11.4537,2758245
11.4611,3414871
11.4684,3766203
11.4758,3296587
11.4832,2834986
11.4906,2550339
11.4979,2327379
11.5053,2281880
11.5127,2415662
11.5201,2828297
11.5274,3118252
11.5348,2568367
11.5422,2216536
11.5496,2230607
11.557,2317402
11.5643,2293660
11.5717,2271914
11.5791,2319295
11.5865,2496731
11.5938,2579632
11.6012,2566921
11.6086,2394562
11.616,2198466
11.6233,2158204
11.6307,2269445
11.6381,2377559
11.6455,2450795
11.6528,2381624
11.6602,2425700
11.6676,2590155
11.675,2583098
11.6824,2521276
11.6897,2450689
11.6971,2302975
11.7045,2249038
11.7119,2412425
11.7192,2492366
11.7266,2411998
11.734,2441897
11.7414,2608323
11.7487,3941505
11.7561,7420313
11.7635,10150871
11.7709,6744804
11.7782,3043642
11.7856,2485859
11.793,2409153
11.8004,2714981
11.8078,3157419
11.8151,3367742
11.8225,3111078
11.8299,2868976
11.8373,2994049
11.8446,3010495
11.852,2779624
11.8594,2581956
11.8668,2701053
11.8741,2690113
11.8815,2647627
11.8889,2723210
11.8963,2622366
11.9036,2624935
11.911,2958670
11.9184,3072619
11.9258,2874053
11.9331,2704538
11.9405,2745898
11.9479,2603414
11.9553,2463474
11.9627,2527241
11.97,2709896
11.9774,2642874
11.9848,2482958
11.9922,2273833
11.9995,2281141
12.0069,2409607
12.0143,2498012
12.0217,2585159
12.029,2585131
12.0364,2415632
12.0438,2293091
12.0512,2291564
12.0585,2374904
12.0659,2415649
12.0733,2486767
12.0807,2475322
12.0881,2520422
12.0954,2956691
12.1028,3418519
12.1102,3801696
12.1176,4624752
12.1249,4659348
12.1323,3411410
12.1397,2523698
12.1471,2685256
12.1544,2939730
12.1618,2649204
12.1692,2329248
12.1766,2403822
12.1839,2530933
12.1913,2634207
12.1987,2945289
12.2061,2809169
12.2135,2441728
12.2208,2292279
12.2282,2399122
12.2356,2724868
12.243,3075471
12.2503,3307684
12.2577,3341786
12.2651,3361013
12.2725,3010685
12.2798,2750123
12.2872,2572792
12.2946,2507892
12.302,2918657
12.3093,3187060
12.3167,2716364
12.3241,2402487
12.3315,2350222
12.3388,2381623
12.3462,2488788
12.3536,2512824
12.361,2467670
12.3684,2318574
12.3757,2286340
12.3831,2276913
12.3905,2374117
12.3979,2348287
12.4052,2238401
12.4126,2407039
12.42,2622224
12.4274,2564494
12.4347,2456723
12.4421,2334216
12.4495,2226965
12.4569,2114836
12.4642,2178372
12.4716,2246589
12.479,2198849
12.4864,2137149
12.4938,2191472
12.5011,2274277
12.5085,2345869
12.5159,3278101
12.5233,5930153
12.5306,8136419
12.538,5926737
12.5454,3973171
12.5528,4625456
12.5601,4256814
12.5675,3080550
12.5749,2527595
12.5823,2557888
12.5896,2494570
12.597,2446044
12.6044,2613895
12.6118,2624410
12.6192,2400268
12.6265,2227892
12.6339,2281632
12.6413,2312606
12.6487,2226439
12.656,2066691
12.6634,1949746
12.6708,2055497
12.6782,2247981
12.6855,2300811
12.6929,2146515
12.7003,2049662
12.7077,2042383
12.715,2057757
12.7224,2103963
12.7298,2123465
12.7372,2031822
12.7445,1935677
12.7519,1903526
12.7593,1911030
12.7667,1920302
12.7741,1949695
12.7814,1865814
12.7888,1874531
12.7962,1817048
12.8036,1792402
12.8109,1815733
12.8183,1917999
12.8257,2066947
12.8331,2349439
12.8404,2469017
12.8478,2218881
12.8552,1980094
12.8626,1928235
12.8699,1978853
12.8773,1797699
12.8847,1839200
12.8921,2099555
12.8995,2203685
12.9068,2012249
12.9142,1692669
12.9216,1565779
12.929,1603328
12.9363,1803520
12.9437,2029905
12.9511,1948139
12.9585,1740109
12.9658,1623483
12.9732,1589468
12.9806,1713338
12.988,1980015
12.9953,2008563
13.0027,1856594
13.0101,1644268
13.0175,1550179
13.0249,1611340
13.0322,1859286
13.0396,2069960
13.047,1987596
13.0544,1698856
13.0617,1510830
13.0691,1523584
13.0765,1550860
13.0839,1551263
13.0912,1511203
13.0986,1462473
13.106,1438396
13.1134,1410410
13.1207,1434353
13.1281,1453753
13.1355,1461465
13.1429,1427471
13.1502,1347976
13.1576,1310587
13.165,1289465
13.1724,1279842
13.1798,1306083
13.1871,1285806
13.1945,1286948
13.2019,1353518
13.2093,1379706
13.2166,1268548
13.224,1189147
13.2314,1177811
13.2388,1335344
13.2461,2185884
13.2535,3629724
13.2609,3373810
13.2683,1747598
13.2756,1178197
13.283,1223031
13.2904,1391696
13.2978,1879723
13.3052,2139349
13.3125,1842838
13.3199,1316726
13.3273,1147913
13.3347,1113918
13.342,1116865
13.3494,1160835
13.3568,1207817
13.3642,1090325
13.3715,1037683
13.3789,1066544
13.3863,1087636
13.3937,1036659
13.401,1000014
13.4084,983206
13.4158,941383
13.4232,961794
13.4306,982585
13.4379,942697
13.4453,880455
13.4527,919682
13.4601,950340
13.4674,936263
13.4748,961204
13.4822,968674
13.4896,913301
13.4969,874835
13.5043,852813
13.5117,810487
13.5191,806301
13.5264,862347
13.5338,932617
13.5412,971904
13.5486,947955
13.556,920870
13.5633,894544
13.5707,891941
13.5781,855994
13.5855,793112
13.5928,770099
13.6002,779374
13.6076,805716
13.615,745317
13.6223,685254
13.6297,683026
13.6371,692888
13.6445,754303
13.6518,788131
13.6592,743751
13.6666,703945
13.674,681305
13.6813,665818
13.6887,710807
13.6961,771176
13.7035,727525
13.7109,683163
13.7182,647114
13.7256,657821
13.733,685048
13.7404,676598
13.7477,705453
13.7551,728725
13.7625,689031
13.7699,701952
13.7772,688027
13.7846,612896
13.792,604288
13.7994,597106
13.8067,607729
13.8141,621777
13.8215,639363
13.8289,615155
13.8363,599996
13.8436,593720
13.851,568674
13.8584,549296
13.8658,581123
13.8731,615282
13.8805,593741
13.8879,561331
13.8953,551832
13.9026,533745
13.91,509332
13.9174,507839
13.9248,500069
13.9321,543265
13.9395,813430
13.9469,1235489
13.9543,980053
13.9617,596185
13.969,484851
13.9764,462241
13.9838,444372
13.9912,439275
13.9985,453356
14.0059,462177
14.0133,481339
14.0207,474310
14.028,455423
14.0354,439851
14.0428,429337
14.0502,422880
14.0575,422086
14.0649,425914
14.0723,404093
14.0797,397559
14.087,413384
14.0944,419648
14.1018,405961
14.1092,393333
14.1166,370864
14.1239,368590
14.1313,362355
14.1387,357416
14.1461,353010
14.1534,350210
14.1608,358311
14.1682,376017
14.1756,381824
14.1829,381028
14.1903,364053
14.1977,354334
14.2051,375153
14.2124,373796
14.2198,357808
14.2272,359448
14.2346,350749
14.242,334867
14.2493,332244
14.2567,322811
14.2641,328850
14.2715,337438
14.2788,328540
14.2862,315777
14.2936,308949
14.301,304863
14.3083,313787
14.3157,342263
14.3231,564209
14.3305,1134288
14.3378,1042498
14.3452,614185
14.3526,447160
14.36,391279
14.3674,347896
14.3747,322531
14.3821,315420
14.3895,309555
14.3969,309028
14.4042,333940
14.4116,348139
14.419,340392
14.4264,307242
14.4337,286241
14.4411,283217
14.4485,291150
14.4559,312334
14.4632,308457
14.4706,303996
14.478,287977
14.4854,285835
14.4927,269424
14.5001,258781
14.5075,255562
14.5149,250909
14.5223,260402
14.5296,289987
14.537,298342
14.5444,281263
14.5518,265390
14.5591,256488
14.5665,253771
14.5739,302129
14.5813,413615
14.5886,415851
14.596,295410
14.6034,250951
14.6108,244772
14.6181,252556
14.6255,242538
14.6329,234827
14.6403,229045
14.6477,225330
14.655,240273
14.6624,255552
14.6698,244609
14.6772,231159
14.6845,227200
14.6919,225385
14.6993,226408
14.7067,223539
14.714,227074
14.7214,228127
14.7288,224277
14.7362,207822
14.7435,203990
14.7509,199376
14.7583,193925
14.7657,200941
14.7731,212495
14.7804,214847
14.7878,204477
14.7952,199242
14.8026,203866
14.8099,204702
14.8173,196693
14.8247,191226
14.8321,186947
14.8394,185654
14.8468,182142
14.8542,180313
14.8616,183705
14.8689,183526
14.8763,178729
14.8837,183134
14.8911,178796
14.8984,172679
14.9058,170655
14.9132,171529
14.9206,167236
14.928,166633
14.9353,173128
14.9427,178226
14.9501,173427
14.9575,166631
14.9648,166112
14.9722,164684
14.9796,163990
14.987,169462
14.9943,174382
15.0017,172927
15.0091,166036
15.0165,160425
15.0238,156789
15.0312,152508
15.0386,157112
15.046,162197
15.0534,177454
15.0607,199586
15.0681,204216
15.0755,180989
15.0829,164806
15.0902,161313
15.0976,157259
15.105,158515
15.1124,156696
15.1197,150368
15.1271,150889
15.1345,172976
15.1419,197768
15.1492,170657
15.1566,153322
15.164,151653
15.1714,149883
15.1788,152741
15.1861,177310
15.1935,215902
15.2009,196636
15.2083,170152
15.2156,158850
15.223,153127
15.2304,150549
15.2378,147117
15.2451,148788
15.2525,152291
15.2599,152649
15.2673,156427
15.2746,151838
15.282,148259
15.2894,145113
15.2968,148183
15.3042,144902
15.3115,143982
15.3189,144763
15.3263,149938
15.3337,161202
15.341,161379
15.3484,153048
15.3558,164962
15.3632,176631
15.3705,171294
15.3779,159431
15.3853,157890
15.3927,153188
15.4,152006
15.4074,147590
15.4148,143914
15.4222,142894
15.4295,143931
15.4369,144705
15.4443,146061
15.4517,149954
15.4591,152636
15.4664,154464
15.4738,165414
15.4812,164277
15.4886,147732
15.4959,142939
15.5033,144855
15.5107,144512
15.5181,139266
15.5254,136374
15.5328,136795
15.5402,135816
15.5476,137352
15.5549,133985
15.5623,141038
15.5697,241401
15.5771,744327
15.5845,1156154
15.5918,785853
15.5992,477836
15.6066,356398
15.614,303314
15.6213,270842
15.6287,264365
15.6361,252491
15.6435,225189
15.6508,204440
15.6582,196400
15.6656,196721
15.673,191795
15.6803,189664
15.6877,187767
15.6951,183420
15.7025,173444
15.7099,171129
15.7172,169139
15.7246,164344
15.732,163087
15.7394,160912
15.7467,158557
15.7541,157844
15.7615,155559
15.7689,156818
15.7762,158443
15.7836,157602
15.791,155474
15.7984,156407
15.8057,158078
15.8131,161235
15.8205,159566
15.8279,154194
15.8352,156615
15.8426,153415
15.85,160507
15.8574,163606
15.8648,164984
15.8721,165623
15.8795,162430
15.8869,163754
15.8943,163698
15.9016,160870
15.909,159194
15.9164,163796
15.9238,165321
15.9311,165815
15.9385,161470
15.9459,156980
15.9533,158994
15.9606,160553
15.968,160284
15.9754,157029
15.9828,151117
15.9902,153565
15.9975,155992
16.0049,158914
16.0123,156769
16.0196,154145
16.027,163769
16.0344,168951
16.0418,184640
16.0492,251206
16.0565,290610
16.0639,235705
16.0713,210881
16.0787,202272
16.086,196916
16.0934,194293
16.1008,190529
16.1082,185604
16.1155,175904
16.1229,172622
16.1303,169184
16.1377,167302
16.1451,163991
16.1524,166522
16.1598,162836
16.1672,160596
16.1746,161522
16.1819,171167
16.1893,175006
16.1967,172641
16.2041,170786
16.2114,171814
16.2188,168714
16.2262,165664
16.2336,165009
16.2409,159467
16.2483,155203
16.2557,157087
16.2631,156648
16.2705,152445
16.2778,151258
16.2852,153797
16.2926,179714
16.2999,202559
16.3073,191802
16.3147,172103
16.3221,166815
16.3295,162453
16.3368,162526
16.3442,161962
16.3516,156542
16.359,155147
16.3663,157324
16.3737,165139
16.3811,169498
16.3885,166655
16.3958,163675
16.4032,158280
16.4106,156407
16.418,151995
16.4254,150092
16.4327,149693
16.4401,146768
16.4475,144925
16.4549,146323
16.4622,212026
16.4696,526207
16.477,717706
16.4844,470426
16.4917,283372
16.4991,228785
16.5065,205256
16.5139,188520
16.5212,182383
16.5286,174458
16.536,162861
16.5434,159131
16.5508,153433
16.5581,157761
16.5655,154673
16.5729,152711
16.5802,149523
16.5876,148189
16.595,145986
16.6024,146231
16.6098,142966
16.6171,139309
16.6245,138903
16.6319,138754
16.6393,137492
16.6467,135351
16.654,136952
16.6614,137890
16.6688,136422
16.6762,136492
16.6835,137050
16.6909,137679
16.6983,133163
16.7056,132810
16.713,134655
16.7204,133270
16.7278,131887
16.7352,131201
16.7425,131598
16.7499,137544
16.7573,144309
16.7647,144450
16.772,136590
16.7794,135191
16.7868,142584
16.7942,182076
16.8015,237765
16.8089,237995
16.8163,206647
16.8237,181768
16.8311,165450
16.8384,159787
16.8458,156035
16.8532,156037
16.8606,155051
16.8679,150496
16.8753,148108
16.8827,146192
16.8901,141879
16.8974,140002
16.9048,139137
16.9122,137570
16.9196,134840
16.927,135925
16.9343,134112
16.9417,134503
16.9491,134254
16.9565,133349
16.9638,132600
16.9712,133418
16.9786,139925
16.9859,145822
16.9933,163358
17.0007,177804
17.0081,170066
17.0155,147168
17.0228,137131
17.0302,134953
17.0376,132062
17.045,130329
17.0524,127560
17.0597,128145
17.0671,128952
17.0745,128976
17.0818,128042
17.0892,127486
17.0966,127278
17.104,125316
17.1114,126394
17.1187,126403
17.1261,124856
17.1335,122362
17.1409,124014
17.1482,123735
17.1556,123196
17.163,123901
17.1704,123609
17.1777,127693
17.1851,138117
17.1925,177486
17.1999,215794
17.2072,194448
17.2146,162178
17.222,144073
17.2294,139336
17.2368,132512
17.2441,131401
17.2515,131393
17.2589,129949
17.2662,135309
17.2736,138248
17.281,136862
17.2884,137659
17.2958,135598
17.3031,134401
17.3105,132136
17.3179,130560
17.3253,129677
17.3327,128028
17.34,124776
17.3474,124188
17.3548,122894
17.3622,122966
17.3695,123438
17.3769,121859
17.3843,122600
17.3916,118525
17.399,120112
17.4064,119500
17.4138,118816
17.4212,116936
17.4285,116752
17.4359,115110
17.4433,117149
17.4507,117514
17.4581,116684
17.4654,117432
17.4728,120206
17.4802,122982
17.4876,128068
