D:\Data GC-MS\2021\8 AUGUST\30-08-21\44676-21-2 LIQ YKK.D 30 Aug 21  02:44 pm
Start of data points
1.2937,4314757
1.30043,4242231
1.30718,4166658
1.31392,4079323
1.32067,3978208
1.3274,3862437
1.33415,3671100
1.3409,3402809
1.34763,3121152
1.35438,2824902
1.36112,2517525
1.36787,2236456
1.3746,1992981
1.38135,1769992
1.3881,1589399
1.39483,1439336
1.40158,1295743
1.40832,1178867
1.41507,1077334
1.4218,991750
1.42855,916530
1.4353,849227
1.44203,787573
1.44878,729664
1.45552,683352
1.46227,637062
1.469,592238
1.47575,551624
1.48248,512805
1.48923,479838
1.5101,1466878
1.51747,1351869
1.52485,1257783
1.53223,1164198
1.5396,1072221
1.54698,987703
1.55435,918438
1.56173,845758
1.5691,783616
1.57648,723149
1.58387,663924
1.59123,617003
1.59862,569837
1.60598,525517
1.61337,487767
1.62073,443637
1.62812,413124
1.6355,379550
1.64287,350950
1.65025,321567
1.65762,293954
1.665,273732
1.67238,252447
1.67975,234868
1.68713,214381
1.6945,197383
1.70188,182943
1.70925,169014
1.71663,155610
1.72402,144811
1.73138,131497
1.73877,121083
1.74613,113208
1.75352,102378
1.7609,96774
1.76827,88156
1.77565,81838
1.78302,75632
1.7904,69241
1.79777,65076
1.80515,59538
1.81253,53450
1.8199,50145
1.82728,46767
1.83465,42903
1.84203,40965
1.84942,37514
1.85678,34834
1.86417,33348
1.87153,30145
1.87892,28951
1.88628,26560
1.89367,25259
1.90105,22666
1.90842,22137
1.9158,20889
1.92317,19930
1.93055,19040
1.93793,16996
1.9453,16332
1.95268,14291
1.96005,13921
1.96743,13528
1.9748,12511
1.98218,12263
1.98957,12077
1.99693,11169
2.00432,10856
2.01168,10135
2.01907,9668
2.02645,9519
2.03382,9544
2.0412,9549
2.04857,10502
2.05595,9954
2.06332,9602
2.0707,9167
2.07808,8730
2.08545,8202
2.09283,8989
2.1002,8844
2.10758,7918
2.11497,7770
2.12233,6817
2.12972,6595
2.13708,7340
2.14447,6891
2.15183,6561
2.15922,6637
2.1666,5887
2.17397,5642
2.18135,4868
2.18872,5496
2.1961,6095
2.20348,6148
2.21085,5852
2.21823,6234
2.2256,7141
2.23298,7523
2.24035,7370
2.24773,7127
2.25512,6872
2.26248,7025
2.26987,6632
2.27723,7019
2.28462,7129
2.29198,7353
2.29937,8732
2.30675,13300
2.31412,17050
2.3215,17660
2.32887,15739
2.33625,15281
2.34363,14929
2.351,14418
2.35838,13375
2.36575,13602
2.37313,12707
2.3805,12888
2.38788,17267
2.39527,18397
2.40263,15583
2.41002,16222
2.41738,16691
2.42477,14479
2.43215,13260
2.43952,11883
2.4469,11461
2.45427,10082
2.46165,9584
2.46902,9680
2.4764,9005
2.48378,10056
2.49115,10680
2.49853,11051
2.5059,12907
2.51328,12235
2.52067,12212
2.52803,11954
2.53542,11725
2.54278,10684
2.55017,11417
2.55753,9814
2.56492,9117
2.5723,10764
2.57967,11752
2.58705,10732
2.59442,10308
2.6018,12879
2.60918,15628
2.61655,14798
2.62393,14355
2.6313,15297
2.63868,15716
2.64605,15344
2.65343,14721
2.66082,13416
2.66818,12187
2.67557,12624
2.68293,12498
2.69032,11466
2.6977,10162
2.70507,9199
2.71245,8731
2.71982,8162
2.7272,7715
2.73457,7586
2.74195,7496
2.74933,8458
2.7567,7716
2.76408,7645
2.77145,7157
2.77883,6461
2.78622,7033
2.79358,6031
2.80097,5906
2.80833,6135
2.81572,5705
2.82308,5782
2.83047,6264
2.83785,5233
2.84522,5704
2.8526,6820
2.85997,7477
2.86735,9773
2.87472,13703
2.8821,18462
2.88948,24266
2.89685,23732
2.90423,20867
2.9116,20166
2.91898,19276
2.92637,18064
2.93373,17671
2.94112,16621
2.94848,14921
2.95587,13694
2.96323,12233
2.97062,11914
2.978,12268
2.98537,10612
2.99275,9899
3.00012,9677
3.0075,8954
3.01488,7729
3.02225,6875
3.02963,7897
3.037,8005
3.04438,9036
3.05175,9844
3.05913,9098
3.06652,8621
3.07388,11281
3.08127,10960
3.08863,9785
3.09602,8476
3.1034,7708
3.11077,7264
3.11815,7523
3.12552,8441
3.1329,9271
3.14027,8475
3.14765,8792
3.15503,10834
3.1624,13425
3.16978,12432
3.17715,11403
3.18453,10251
3.19192,9757
3.19928,11220
3.20667,11270
3.21403,9804
3.22142,9151
3.22878,9586
3.23617,10511
3.24355,10922
3.25092,10062
3.2583,9530
3.26567,9215
3.27305,9366
3.28043,8658
3.2878,11630
3.29518,17322
3.30255,26590
3.30993,31075
3.3173,56491
3.32468,96496
3.33207,95325
3.33943,86355
3.34682,81478
3.35418,76047
3.36157,59201
3.36895,53182
3.37632,50159
3.3837,47039
3.39107,40003
3.39845,35108
3.40582,37006
3.4132,32314
3.42058,25795
3.42795,21419
3.43533,17626
3.4427,14962
3.45008,12361
3.45745,10817
3.46483,9591
3.47222,9549
3.47958,11007
3.48697,13998
3.49433,14575
3.50172,13800
3.5091,18241
3.51647,19036
3.52385,20073
3.53122,16696
3.5386,15041
3.54597,12629
3.55335,11175
3.56073,10290
3.5681,8945
3.57548,9066
3.58285,10103
3.59023,11920
3.59762,12203
3.60498,11914
3.61237,14549
3.61973,14115
3.62712,13444
3.63448,15394
3.64187,14971
3.64925,13480
3.65662,11486
3.664,12984
3.67137,10958
3.67875,10514
3.68613,14363
3.6935,18369
3.70088,19868
3.70825,19346
3.71563,18391
3.723,18072
3.73038,15411
3.73777,15351
3.74513,13372
3.75252,10521
3.75988,9151
3.76727,7972
3.77465,7498
3.78202,8692
3.7894,10930
3.79677,14346
3.80415,17111
3.81152,16536
3.8189,15484
3.82628,13806
3.83365,11529
3.84103,9956
3.8484,10457
3.85578,11237
3.86317,11770
3.87053,11473
3.87792,11553
3.88528,10955
3.89267,9806
3.90003,9776
3.90742,9871
3.9148,9524
3.92217,9873
3.92955,9825
3.93692,10491
3.9443,12454
3.95168,13045
3.95905,11752
3.96643,11822
3.9738,10642
3.98118,10947
3.98855,11956
3.99593,12320
4.00332,12595
4.01068,13005
4.01807,12566
4.02543,13773
4.03282,14971
4.04018,15581
4.04757,14950
4.05495,14377
4.06232,13711
4.0697,12242
4.07707,11754
4.08445,11621
4.09183,13237
4.0992,17118
4.10658,22164
4.11395,26091
4.12133,25328
4.1287,24766
4.13608,24590
4.14347,22942
4.15083,19406
4.15822,17149
4.16558,14617
4.17297,13330
4.18035,14030
4.18772,16150
4.1951,14914
4.20247,14737
4.20985,14660
4.21722,14102
4.2246,13342
4.23198,13719
4.23935,14705
4.24673,15730
4.2541,14225
4.26148,13283
4.26887,11895
4.27623,11408
4.28362,11977
4.29098,11575
4.29837,12003
4.30573,11414
4.31312,11019
4.3205,10626
4.32787,10193
4.33525,9838
4.34262,8478
4.35,8871
4.35738,10436
4.36475,13897
4.37213,17601
4.3795,18306
4.38688,19067
4.39425,18217
4.40163,18700
4.40902,18312
4.41638,17649
4.42377,28360
4.43113,79267
4.43852,139048
4.4459,148167
4.45327,125358
4.46065,97089
4.46802,80085
4.4754,63695
4.48277,48787
4.49015,32977
4.49753,22821
4.5049,17382
4.51228,14748
4.51965,14791
4.52703,32371
4.53442,147081
4.54178,384114
4.54917,498961
4.55653,489981
4.56392,417262
4.57128,302085
4.57867,197263
4.58605,117513
4.59342,70267
4.6008,41173
4.60817,27207
4.61555,18386
4.62292,15494
4.6303,13216
4.63768,11535
4.64505,11366
4.65243,12136
4.6598,13849
4.66718,14733
4.67457,13673
4.68193,12879
4.68932,11474
4.69668,11674
4.70407,11162
4.71143,11397
4.71882,11708
4.7262,11824
4.73357,13675
4.74095,18196
4.74832,20938
4.7557,20897
4.76308,19463
4.77045,16706
4.77783,14934
4.7852,15448
4.79258,18428
4.79995,18545
4.80733,39523
4.81472,148574
4.82208,292523
4.82947,327852
4.83683,246933
4.84422,159929
4.8516,90920
4.85897,52576
4.86635,32610
4.87372,23574
4.8811,27418
4.88847,51864
4.89585,66836
4.90323,57263
4.9106,36600
4.91798,23272
4.92535,15074
4.93273,11027
4.94012,9404
4.94748,9047
4.95487,10557
4.96223,11604
4.96962,10963
4.97698,9891
4.98437,9630
4.99175,8881
4.99912,10991
5.0065,14523
5.01387,17757
5.02125,20880
5.02863,23669
5.036,22093
5.04338,16875
5.05075,12948
5.05813,11201
5.0655,12730
5.07288,15367
5.08027,18904
5.08763,20274
5.09502,18507
5.10238,15291
5.10977,14329
5.11715,14226
5.12452,12648
5.1319,11657
5.13927,11403
5.14665,11607
5.15402,13367
5.1614,15821
5.16878,22950
5.17615,33615
5.18353,46957
5.1909,61315
5.19828,61851
5.20565,44558
5.21303,25847
5.22042,17712
5.22778,17223
5.23517,23785
5.24253,29323
5.24992,25521
5.2573,18876
5.26467,17103
5.27205,16711
5.27942,17450
5.2868,31778
5.29417,59923
5.30155,66551
5.30893,51447
5.3163,40005
5.32368,32000
5.33105,26539
5.33843,20595
5.34582,18653
5.35318,21608
5.36057,28227
5.36793,34896
5.37532,31800
5.38268,25473
5.39007,23015
5.39745,22422
5.40482,21269
5.4122,21562
5.41957,20364
5.42695,20796
5.43433,20139
5.4417,19491
5.44908,18110
5.45645,18746
5.46383,20112
5.4712,20957
5.47858,18083
5.48597,14059
5.49333,11695
5.50072,11037
5.50808,13035
5.51547,18991
5.52285,33502
5.53022,54321
5.5376,90320
5.54497,179311
5.55235,249323
5.55972,204617
5.5671,112246
5.57448,51839
5.58185,38206
5.58923,48137
5.5966,48878
5.60398,44453
5.61137,81719
5.61873,161233
5.62612,476632
5.63348,1101951
5.64087,1235320
5.64823,783973
5.65562,412694
5.663,335698
5.67037,501600
5.67775,574051
5.68512,397371
5.6925,174759
5.69988,68186
5.70725,32429
5.71463,41874
5.722,239253
5.72938,780530
5.73675,1036789
5.74413,678537
5.75152,260358
5.75888,85849
5.76627,40957
5.77363,30188
5.78102,28947
5.78838,28234
5.79577,31574
5.80315,38242
5.81052,33277
5.8179,29534
5.82527,51384
5.83265,197112
5.84003,550964
5.8474,684535
5.85478,424887
5.86215,174339
5.86953,70168
5.8769,42570
5.88428,31246
5.89167,24283
5.89903,23070
5.90642,30520
5.91378,47771
5.92117,61829
5.92855,58468
5.93592,51612
5.9433,49836
5.95067,48777
5.95805,53323
5.96542,69736
5.9728,78922
5.98018,61497
5.98755,42643
5.99493,48219
6.0023,56785
6.00968,141725
6.01707,811392
6.02443,2461445
6.03182,3901524
6.03918,2924954
6.04657,811321
6.05393,219069
6.06132,327645
6.0687,419302
6.07607,213252
6.08345,80833
6.09082,44698
6.0982,34447
6.10558,31286
6.11295,37066
6.12033,44740
6.1277,40815
6.13508,29743
6.14245,27325
6.14983,28455
6.15722,24540
6.16458,23042
6.17197,31100
6.17933,60265
6.18672,81250
6.1941,79732
6.20147,90241
6.20885,123722
6.21622,107544
6.2236,63866
6.23097,47505
6.23835,46927
6.24573,49669
6.2531,48576
6.26048,44797
6.26785,67847
6.27523,82285
6.28262,62631
6.28998,42813
6.29737,44250
6.30473,129453
6.31212,334449
6.31948,376457
6.32687,200886
6.33425,283301
6.34162,855045
6.349,1415423
6.35637,861886
6.36375,284231
6.37112,172050
6.3785,182010
6.38588,129704
6.39325,71017
6.40063,50865
6.408,57998
6.41538,58494
6.42277,59752
6.43013,63080
6.43752,52974
6.44488,46061
6.45227,80601
6.45963,146040
6.46702,120892
6.4744,105649
6.48177,142839
6.48915,139815
6.49652,198231
6.5039,421026
6.51128,639086
6.51865,497074
6.52603,221778
6.5334,98978
6.54078,76657
6.54815,58786
6.55553,38697
6.56292,31782
6.57028,34964
6.57767,43206
6.58503,52795
6.59242,60562
6.5998,54492
6.60717,68215
6.61455,147749
6.62192,356850
6.6293,456110
6.63667,273387
6.64405,140492
6.65143,209295
6.6588,580332
6.66618,834134
6.67355,569438
6.68093,197339
6.68832,157020
6.69568,223316
6.70307,167670
6.71043,164239
6.71782,493070
6.72518,1188124
6.73257,1615770
6.73995,1029104
6.74732,287078
6.7547,139416
6.76207,118844
6.76945,102377
6.77683,200677
6.7842,314190
6.79158,226094
6.79895,117412
6.80633,108018
6.8137,129084
6.82108,187093
6.82847,423240
6.83583,469675
6.84322,305600
6.85058,326793
6.85797,334494
6.86535,165199
6.87272,101382
6.8801,99930
6.88747,71256
6.89485,47138
6.90222,41980
6.9096,55495
6.91698,72485
6.92435,106285
6.93173,410387
6.9391,960820
6.94648,952184
6.95385,385831
6.96123,262484
6.96862,693654
6.97598,917228
6.98337,447152
6.99073,112622
6.99812,63882
7.0055,87645
7.01287,119029
7.02025,207008
7.02762,400002
7.035,1062231
7.04237,1951601
7.04975,1216397
7.05713,346499
7.0645,256143
7.07188,531706
7.07925,635677
7.08663,359237
7.09402,226414
7.10138,220607
7.10877,175482
7.11613,165393
7.12352,158462
7.13088,113460
7.13827,81893
7.14565,79066
7.15302,110400
7.1604,318484
7.16777,913520
7.17515,1169146
7.18253,442430
7.1899,142035
7.19728,158468
7.20465,214248
7.21203,330425
7.2194,404801
7.22678,359857
7.23417,236193
7.24153,155767
7.24892,202855
7.25628,414129
7.26367,424919
7.27105,188805
7.27842,88293
7.2858,110392
7.29317,140292
7.30055,170368
7.30792,215110
7.3153,206885
7.32268,193399
7.33005,200792
7.33743,186111
7.3448,200744
7.35218,181766
7.35957,139646
7.36693,139702
7.37432,154752
7.38168,504370
7.38907,1231461
7.39643,1093960
7.40382,456807
7.4112,217822
7.41857,453476
7.42595,1287204
7.43332,1794712
7.4407,999053
7.44808,365454
7.45545,245968
7.46283,153690
7.4702,128983
7.47758,93243
7.48495,112195
7.49233,131729
7.49972,150443
7.50708,134187
7.51447,106467
7.52183,128772
7.52922,198413
7.5366,190693
7.54397,117097
7.55135,83958
7.55872,101913
7.5661,163427
7.57347,292034
7.58085,295283
7.58823,254406
7.5956,457471
7.60298,544404
7.61035,543494
7.61773,665852
7.6251,507592
7.63248,292086
7.63987,216167
7.64723,463209
7.65462,1148806
7.66198,1147305
7.66937,540449
7.67675,257466
7.68412,194774
7.6915,172320
7.69887,211678
7.70625,171527
7.71362,123530
7.721,164622
7.72838,285119
7.73575,361179
7.74313,840792
7.7505,1722915
7.75788,2102210
7.76527,1593397
7.77263,1220112
7.78002,705937
7.78738,467195
7.79477,316842
7.80213,262980
7.80952,284001
7.8169,326790
7.82427,607132
7.83165,852089
7.83902,812232
7.8464,502541
7.85378,209908
7.86115,161967
7.86853,168072
7.8759,228445
7.88328,336449
7.89065,377338
7.89803,764430
7.90542,1080818
7.91278,737578
7.92017,270852
7.92753,158379
7.93492,179538
7.9423,197227
7.94967,186176
7.95705,132929
7.96442,124065
7.9718,249902
7.97917,443597
7.98655,466866
7.99393,293769
8.0013,232898
8.00868,242287
8.01605,184722
8.02343,123398
8.03082,122556
8.03818,192327
8.04557,215090
8.05293,165127
8.06032,130769
8.06768,134519
8.07507,192773
8.08245,187061
8.08982,214477
8.0972,338822
8.10457,598617
8.11195,728665
8.11933,639722
8.1267,684316
8.13408,828444
8.14145,874278
8.14883,1131035
8.1562,1455528
8.16358,1618267
8.17097,1428005
8.17833,719234
8.18572,435127
8.19308,839339
8.20047,1973945
8.20783,3244968
8.21522,2041813
8.2226,857559
8.22997,920989
8.23735,1065983
8.24472,821612
8.2521,372875
8.25948,248828
8.26685,266186
8.27423,222695
8.2816,203650
8.28898,228896
8.29635,269538
8.30373,256380
8.31112,278716
8.31848,567969
8.32587,1128062
8.33323,1296352
8.34062,706435
8.348,325006
8.35537,211323
8.36275,237418
8.37012,331810
8.3775,307329
8.38487,258010
8.39225,242084
8.39963,250032
8.407,375759
8.41438,511398
8.42175,470755
8.42913,303685
8.43652,218843
8.44388,207848
8.45127,263640
8.45863,492331
8.46602,732174
8.47338,695436
8.48077,475767
8.48815,349619
8.49552,395850
8.5029,485090
8.51027,347549
8.51765,210132
8.52503,245606
8.5324,386792
8.53978,467257
8.54715,337727
8.55453,201728
8.5619,220854
8.56928,289880
8.57667,328719
8.58403,442868
8.59142,694040
8.59878,849691
8.60617,731608
8.61355,423229
8.62092,269817
8.6283,266051
8.63567,278974
8.64305,383444
8.65042,619452
8.6578,748995
8.66518,658415
8.67255,444193
8.67993,309342
8.6873,293740
8.69468,351149
8.70207,468484
8.70943,484521
8.71682,338084
8.72418,393061
8.73157,473676
8.73893,467793
8.74632,590024
8.7537,612766
8.76107,606662
8.76845,801279
8.77582,877558
8.7832,556918
8.79057,322941
8.79795,261226
8.80533,281364
8.8127,344961
8.82008,441027
8.82745,686918
8.83483,653646
8.84222,390002
8.84958,283087
8.85697,275790
8.86433,296781
8.87172,372898
8.87908,472993
8.88647,682786
8.89385,1048003
8.90122,1280550
8.9086,1154945
8.91597,555324
8.92335,286273
8.93073,324839
8.9381,565597
8.94548,974744
8.95285,875013
8.96023,469591
8.9676,274779
8.97498,249584
8.98237,295725
8.98973,336610
8.99712,347439
9.00448,320963
9.01187,276331
9.01925,363425
9.02662,458371
9.034,580638
9.04137,529582
9.04875,467906
9.05612,434150
9.0635,296098
9.07088,213881
9.07825,272942
9.08563,368509
9.093,341859
9.10038,351293
9.10777,478954
9.11513,492905
9.12252,470041
9.12988,442207
9.13727,461975
9.14463,463394
9.15202,545633
9.1594,633309
9.16677,1218139
9.17415,2231268
9.18152,3478387
9.1889,1986748
9.19628,829114
9.20365,484419
9.21103,319965
9.2184,294000
9.22578,318862
9.23315,363909
9.24053,411587
9.24792,454141
9.25528,972773
9.26267,1168526
9.27003,827019
9.27742,460928
9.2848,338636
9.29217,347843
9.29955,308964
9.30692,375377
9.3143,422556
9.32167,584105
9.32905,762218
9.33643,601983
9.3438,316531
9.35118,245115
9.35855,344395
9.36593,435835
9.3733,405947
9.38068,364281
9.38807,247015
9.39543,261812
9.40282,394863
9.41018,615486
9.41757,643341
9.42495,526955
9.43232,449347
9.4397,482298
9.44707,560860
9.45445,1026200
9.46182,1315489
9.4692,1100713
9.47658,888817
9.48395,794809
9.49133,653961
9.4987,532235
9.50608,573269
9.51347,767809
9.52083,762717
9.52822,535351
9.53558,403911
9.54297,387261
9.55033,459356
9.55772,553275
9.5651,510347
9.57247,448481
9.57985,452257
9.58722,495538
9.5946,528886
9.60198,571338
9.60935,549758
9.61673,494063
9.6241,642932
9.63148,989499
9.63885,1259062
9.64623,1090514
9.65362,842725
9.66098,753025
9.66837,679477
9.67573,681928
9.68312,764321
9.6905,681918
9.69787,669076
9.70525,899458
9.71262,811772
9.72,564011
9.72737,466937
9.73475,441081
9.74213,452097
9.7495,625239
9.75688,1088208
9.76425,1159669
9.77163,699684
9.77902,507781
9.78638,491673
9.79377,506442
9.80113,671531
9.80852,807734
9.81588,856132
9.82327,999226
9.83065,922648
9.83802,896933
9.8454,739129
9.85277,627361
9.86015,1185035
9.86753,2008825
9.8749,1515766
9.88228,616456
9.88965,455985
9.89703,432350
9.9044,525825
9.91178,625306
9.91917,623290
9.92653,631534
9.93392,567462
9.94128,479094
9.94867,417982
9.95603,420277
9.96342,483629
9.9708,520179
9.97817,519121
9.98555,597089
9.99292,585634
10.0003,526942
10.0077,545449
10.0151,588869
10.0224,611010
10.0298,666471
10.0372,623802
10.0446,589286
10.0519,585589
10.0593,546652
10.0667,568688
10.0741,995378
10.0814,2310009
10.0888,4158452
10.0962,5438487
10.1036,3336369
10.111,1754028
10.1183,1023934
10.1257,590528
10.1331,507523
10.1405,577515
10.1478,737232
10.1552,857631
10.1626,805708
10.17,690657
10.1773,691382
10.1847,674889
10.1921,542185
10.1995,498050
10.2068,569868
10.2142,634581
10.2216,592711
10.229,588153
10.2364,618257
10.2437,593643
10.2511,596206
10.2585,611231
10.2659,643629
10.2732,715284
10.2806,790316
10.288,672630
10.2954,564578
10.3027,531225
10.3101,510906
10.3175,516698
10.3249,564928
10.3322,552225
10.3396,550763
10.347,593089
10.3544,622026
10.3618,696198
10.3691,823695
10.3765,924065
10.3839,975038
10.3913,899083
10.3986,725582
10.406,574499
10.4134,552672
10.4208,682767
10.4281,914297
10.4355,964770
10.4429,785020
10.4503,634245
10.4576,560659
10.465,671230
10.4724,777463
10.4798,666698
10.4871,654917
10.4945,768788
10.5019,800374
10.5093,820072
10.5167,809712
10.524,862940
10.5314,895548
10.5388,793685
10.5462,688214
10.5535,953014
10.5609,1284976
10.5683,1292667
10.5757,1086903
10.583,956089
10.5904,882264
10.5978,1158849
10.6052,2027124
10.6125,2281122
10.6199,1256867
10.6273,755374
10.6347,1012071
10.6421,1050177
10.6494,717812
10.6568,591282
10.6642,555438
10.6716,496681
10.6789,455850
10.6863,592932
10.6937,951740
10.7011,1016998
10.7084,693072
10.7158,565126
10.7232,540357
10.7306,507097
10.7379,542743
10.7453,581620
10.7527,574038
10.7601,538660
10.7675,763111
10.7748,826878
10.7822,725110
10.7896,787536
10.797,848868
10.8043,748101
10.8117,577902
10.8191,474754
10.8265,472131
10.8338,505897
10.8412,477104
10.8486,464958
10.856,525611
10.8633,617240
10.8707,699149
10.8781,644945
10.8855,557346
10.8928,606461
10.9002,646468
10.9076,589285
10.915,540761
10.9224,681244
10.9297,960519
10.9371,1520898
10.9445,2779142
10.9519,4520953
10.9592,4515815
10.9666,1321040
10.974,657548
10.9814,656195
10.9887,618780
10.9961,596964
11.0035,781549
11.0109,867252
11.0182,854792
11.0256,764925
11.033,688013
11.0404,642285
11.0478,630642
11.0551,593608
11.0625,583819
11.0699,626505
11.0773,664770
11.0846,613845
11.092,516096
11.0994,485214
11.1068,624481
11.1141,693119
11.1215,649968
11.1289,538727
11.1363,502032
11.1436,503299
11.151,513514
11.1584,503464
11.1658,485586
11.1732,490633
11.1805,494891
11.1879,489430
11.1953,481261
11.2027,456695
11.21,384322
11.2174,379235
11.2248,492568
11.2322,542551
11.2395,496920
11.2469,494646
11.2543,501790
11.2617,525230
11.269,564619
11.2764,627400
11.2838,624991
11.2912,548174
11.2985,497752
11.3059,670171
11.3133,735877
11.3207,778857
11.3281,820535
11.3354,877102
11.3428,780041
11.3502,563133
11.3576,642838
11.3649,839902
11.3723,871323
11.3797,641586
11.3871,466319
11.3944,449656
11.4018,637012
11.4092,869639
11.4166,1015330
11.4239,798360
11.4313,697732
11.4387,874803
11.4461,792770
11.4535,866422
11.4608,1188636
11.4682,1551539
11.4756,1091466
11.483,754489
11.4903,663906
11.4977,641937
11.5051,604050
11.5125,620325
11.5198,788880
11.5272,786383
11.5346,553282
11.542,492815
11.5493,491666
11.5567,541387
11.5641,533636
11.5715,502738
11.5789,498704
11.5862,524139
11.5936,564488
11.601,700426
11.6084,648110
11.6157,496900
11.6231,495796
11.6305,539947
11.6379,533496
11.6452,513242
11.6526,512377
11.66,540922
11.6674,562738
11.6747,562598
11.6821,508478
11.6895,443234
11.6969,418878
11.7043,438529
11.7116,510978
11.719,678307
11.7264,653688
11.7338,697787
11.7411,894191
11.7485,1682596
11.7559,3452730
11.7633,5559893
11.7706,5229003
11.778,1470979
11.7854,775154
11.7928,671082
11.8001,779537
11.8075,903233
11.8149,924262
11.8223,848775
11.8296,791283
11.837,841843
11.8444,800740
11.8518,708225
11.8592,646961
11.8665,690894
11.8739,751731
11.8813,752385
11.8887,695132
11.896,660498
11.9034,714923
11.9108,817136
11.9182,810682
11.9255,728499
11.9329,694900
11.9403,737038
11.9477,724480
11.955,677628
11.9624,672345
11.9698,687404
11.9772,648731
11.9846,610099
11.9919,584493
11.9993,580372
12.0067,585781
12.0141,626990
12.0214,650128
12.0288,633476
12.0362,568026
12.0436,544096
12.0509,552505
12.0583,569975
12.0657,597678
12.0731,634176
12.0804,636305
12.0878,684197
12.0952,799415
12.1026,970104
12.11,1399706
12.1173,1928992
12.1247,1962814
12.1321,1078015
12.1395,592045
12.1468,634143
12.1542,658035
12.1616,567380
12.169,519581
12.1763,555997
12.1837,603365
12.1911,657393
12.1985,723303
12.2058,635080
12.2132,521414
12.2206,511554
12.228,601049
12.2353,736508
12.2427,893953
12.2501,943902
12.2575,865305
12.2649,786806
12.2722,692216
12.2796,654790
12.287,587032
12.2944,571766
12.3017,697527
12.3091,704155
12.3165,529608
12.3239,455611
12.3312,449148
12.3386,525733
12.346,550720
12.3534,530919
12.3607,525868
12.3681,534043
12.3755,518711
12.3829,534915
12.3903,539121
12.3976,506630
12.405,493249
12.4124,556476
12.4198,590892
12.4271,689608
12.4345,594282
12.4419,492262
12.4493,437239
12.4566,507470
12.464,486705
12.4714,462069
12.4788,435317
12.4861,415745
12.4935,422878
12.5009,455144
12.5083,520205
12.5157,942413
12.523,1941064
12.5304,3183067
12.5378,3584733
12.5452,2075837
12.5525,2329712
12.5599,2709806
12.5673,1571193
12.5747,840764
12.582,682024
12.5894,584277
12.5968,576266
12.6042,592100
12.6115,671410
12.6189,560162
12.6263,504243
12.6337,510197
12.641,542089
12.6484,514800
12.6558,445959
12.6632,423899
12.6706,471785
12.6779,510745
12.6853,503509
12.6927,483405
12.7001,474848
12.7074,475868
12.7148,658489
12.7222,699188
12.7296,701714
12.7369,717540
12.7443,715104
12.7517,666384
12.7591,635142
12.7664,630322
12.7738,628003
12.7812,617326
12.7886,619442
12.796,595939
12.8033,604771
12.8107,642448
12.8181,719129
12.8255,821720
12.8328,984819
12.8402,1034398
12.8476,896667
12.855,723498
12.8623,722771
12.8697,734029
12.8771,679266
12.8845,731601
12.8918,889579
12.8992,934464
12.9066,761725
12.914,568300
12.9214,521726
12.9287,530815
12.9361,648616
12.9435,803761
12.9509,754646
12.9582,609569
12.9656,564643
12.973,566992
12.9804,663606
12.9877,869904
12.9951,870017
13.0025,762579
13.0099,655451
13.0172,566717
13.0246,593313
13.032,726389
13.0394,849222
13.0467,849697
13.0541,706401
13.0615,563688
13.0689,542007
13.0763,598174
13.0836,572037
13.091,530519
13.0984,528594
13.1058,534122
13.1131,523971
13.1205,525753
13.1279,570171
13.1353,586582
13.1426,554465
13.15,518734
13.1574,506979
13.1648,491351
13.1721,503000
13.1795,524187
13.1869,504986
13.1943,513792
13.2017,519026
13.209,500716
13.2164,458621
13.2238,432180
13.2312,442403
13.2385,535136
13.2459,996085
13.2533,2109728
13.2607,3379602
13.268,2990570
13.2754,922949
13.2828,485997
13.2902,590357
13.2975,1196178
13.3049,2176306
13.3123,2375715
13.3197,1431671
13.3271,631758
13.3344,503807
13.3418,495716
13.3492,512950
13.3566,515053
13.3639,477012
13.3713,425867
13.3787,423923
13.3861,515942
13.3934,515048
13.4008,479490
13.4082,460043
13.4156,445774
13.4229,446466
13.4303,471098
13.4377,452416
13.4451,419954
13.4525,419371
13.4598,431955
13.4672,442721
13.4746,475594
13.482,524169
13.4893,507209
13.4967,458211
13.5041,429012
13.5115,408884
13.5188,414514
13.5262,450055
13.5336,511974
13.541,572961
13.5483,587612
13.5557,582427
13.5631,555327
13.5705,563523
13.5778,514949
13.5852,461794
13.5926,430372
13.6,483674
13.6074,502361
13.6147,429708
13.6221,379396
13.6295,369587
13.6369,471716
13.6442,492957
13.6516,551308
13.659,502139
13.6664,474734
13.6737,426505
13.6811,427236
13.6885,461604
13.6959,575160
13.7032,538192
13.7106,444238
13.718,415519
13.7254,414539
13.7328,457823
13.7401,463810
13.7475,501891
13.7549,556052
13.7623,509206
13.7696,491607
13.777,489754
13.7844,425509
13.7918,422831
13.7991,505532
13.8065,472822
13.8139,456332
13.8213,427573
13.8286,395124
13.836,423054
13.8434,430773
13.8508,409923
13.8582,453688
13.8655,530515
13.8729,653272
13.8803,662693
13.8877,564173
13.895,500486
13.9024,449024
13.9098,424257
13.9172,546818
13.9245,538110
13.9319,585932
13.9393,1027393
13.9467,2253953
13.954,3641769
13.9614,2719425
13.9688,899415
13.9762,561003
13.9835,525542
13.9909,537271
13.9983,543748
14.0057,574008
14.0131,648765
14.0204,723741
14.0278,697062
14.0352,618782
14.0426,573482
14.0499,540069
14.0573,548161
14.0647,596256
14.0721,574402
14.0794,538829
14.0868,548698
14.0942,579161
14.1016,550517
14.1089,543301
14.1163,542902
14.1237,527302
14.1311,532458
14.1385,512219
14.1458,496149
14.1532,501554
14.1606,537846
14.168,605108
14.1753,654127
14.1827,602688
14.1901,592433
14.1975,598166
14.2048,654106
14.2122,701344
14.2196,653059
14.227,627417
14.2343,608674
14.2417,588396
14.2491,573963
14.2565,527517
14.2639,522742
14.2712,567826
14.2786,614412
14.286,574563
14.2934,537189
14.3007,514056
14.3081,504719
14.3155,555694
14.3229,620708
14.3302,628166
14.3376,568682
14.345,550548
14.3524,613163
14.3597,733406
14.3671,669267
14.3745,559825
14.3819,509149
14.3892,485693
14.3966,468947
14.404,540515
14.4114,753691
14.4188,761385
14.4261,571939
14.4335,495739
14.4409,528688
14.4483,614278
14.4556,752102
14.463,723498
14.4704,586883
14.4778,525684
14.4851,522147
14.4925,503470
14.4999,507585
14.5073,509170
14.5146,493108
14.522,491819
14.5294,521824
14.5368,579506
14.5442,590095
14.5515,561506
14.5589,518828
14.5663,517908
14.5737,797152
14.581,1906450
14.5884,3181100
14.5958,2242313
14.6032,729853
14.6105,516350
14.6179,532542
14.6253,527093
14.6327,493166
14.64,491975
14.6474,508839
14.6548,527795
14.6622,560022
14.6696,558457
14.6769,545281
14.6843,544093
14.6917,535249
14.6991,542247
14.7064,543676
14.7138,515829
14.7212,493088
14.7286,478387
14.7359,454166
14.7433,454590
14.7507,441511
14.7581,428982
14.7654,456688
14.7728,508337
14.7802,534447
14.7876,510660
14.7949,523500
14.8023,644667
14.8097,690300
14.8171,608419
14.8245,544929
14.8318,526398
14.8392,518749
14.8466,531644
14.854,510419
14.8613,516435
14.8687,542478
14.8761,511692
14.8835,474712
14.8908,490607
14.8982,485352
14.9056,524172
14.913,558967
14.9203,495635
14.9277,463873
14.9351,513331
14.9425,621053
14.9499,625171
14.9572,567501
14.9646,544517
14.972,484985
14.9794,507452
14.9867,659440
14.9941,822768
15.0015,777647
15.0089,682091
15.0162,565231
15.0236,482170
15.031,463188
15.0384,489686
15.0457,543649
15.0531,627658
15.0605,551211
15.0679,465293
15.0753,455415
15.0826,473261
15.09,506386
15.0974,522867
15.1048,484015
15.1121,453855
15.1195,433755
15.1269,485972
15.1343,1074885
15.1416,2406171
15.149,2280638
15.1564,813707
15.1638,484835
15.1711,464393
15.1785,457170
15.1859,460917
15.1933,449912
15.2007,436313
15.208,445857
15.2154,477302
15.2228,501055
15.2302,492432
15.2375,446013
15.2449,436363
15.2523,458643
15.2597,451756
15.267,465000
15.2744,495595
15.2818,542711
15.2892,538855
15.2965,486987
15.3039,447156
15.3113,425194
15.3187,444090
15.326,519897
15.3334,584848
15.3408,534643
15.3482,497354
15.3556,491330
15.3629,482660
15.3703,470797
15.3777,416973
15.3851,410115
15.3924,443306
15.3998,441654
15.4072,427265
15.4146,426376
15.4219,448965
15.4293,508590
15.4367,489071
15.4441,440559
15.4514,480903
15.4588,545170
15.4662,501670
15.4736,473419
15.481,470172
15.4883,429403
15.4957,440388
15.5031,489972
15.5105,479032
15.5178,473586
15.5252,484615
15.5326,504453
15.54,478879
15.5473,419944
15.5547,391390
15.5621,398404
15.5695,440118
15.5768,508511
15.5842,477697
15.5916,405120
15.599,387653
15.6064,387878
15.6137,381853
15.6211,457196
15.6285,1053604
15.6359,2099243
15.6432,1357211
15.6506,508422
15.658,415782
15.6654,414772
15.6727,431836
15.6801,438706
15.6875,434251
15.6949,432249
15.7022,416400
15.7096,407040
15.717,433682
15.7244,431160
15.7317,399309
15.7391,387935
15.7465,398311
15.7539,401171
15.7613,390782
15.7686,433517
15.776,507064
15.7834,526931
15.7908,483121
15.7981,489832
15.8055,476867
15.8129,443339
15.8203,423245
15.8276,403084
15.835,408296
15.8424,398747
15.8498,399479
15.8571,401663
15.8645,385043
15.8719,363057
15.8793,386544
15.8867,434805
15.894,457209
15.9014,414113
15.9088,407613
15.9162,473006
15.9235,470892
15.9309,391594
15.9383,374961
15.9457,380341
15.953,387281
15.9604,422762
15.9678,395269
15.9752,360850
15.9825,363527
15.9899,358031
15.9973,372726
16.0047,402116
16.012,359870
16.0194,335278
16.0268,326905
16.0342,345915
16.0416,377916
16.0489,393780
16.0563,347825
16.0637,342978
16.0711,639884
16.0784,1295479
16.0858,1122998
16.0932,470631
16.1006,341871
16.1079,346277
16.1153,359663
16.1227,363896
16.1301,387523
16.1374,390731
16.1448,375430
16.1522,349049
16.1596,323514
16.167,322771
16.1743,339741
16.1817,336082
16.1891,306372
16.1964,297697
16.2038,313777
16.2112,317141
16.2186,326229
16.226,370795
16.2333,403662
16.2407,381788
16.2481,341865
16.2555,329804
16.2628,332579
16.2702,332849
16.2776,312052
16.285,290229
16.2923,291743
16.2997,293343
16.3071,276581
16.3145,262514
16.3219,281014
16.3292,313980
16.3366,310365
16.344,296257
16.3514,319686
16.3587,319958
16.3661,292637
16.3735,274093
16.3809,269366
16.3882,272610
16.3956,300269
16.403,301818
16.4104,272584
16.4178,249952
16.4251,257882
16.4325,265709
16.4399,256911
16.4473,259287
16.4546,264867
16.462,260995
16.4694,245308
16.4767,241507
16.4841,245036
16.4915,241563
16.4989,264208
16.5063,301796
16.5136,453530
16.521,761709
16.5284,709829
16.5358,372991
16.5431,254079
16.5505,260327
16.5579,260479
16.5653,249742
16.5726,242615
16.58,237395
16.5874,235081
16.5948,241989
16.6022,248351
16.6095,242359
16.6169,231222
16.6243,228782
16.6317,230345
16.639,233671
16.6464,226451
16.6538,218990
16.6612,223159
16.6685,235256
16.6759,251550
16.6833,265767
16.6907,263137
16.698,248679
16.7054,233896
16.7128,224392
16.7202,218621
16.7276,225227
16.7349,217588
16.7423,208005
16.7497,208997
16.7571,207664
16.7644,196040
16.7718,188907
16.7792,199957
16.7866,217258
16.7939,223784
16.8013,215266
16.8087,218364
16.8161,229121
16.8235,219736
16.8308,199207
16.8382,199966
16.8456,199126
16.853,195705
16.8603,206937
16.8677,216730
16.8751,204245
16.8824,186753
16.8898,174126
16.8972,173260
16.9046,174501
16.912,176340
16.9193,177329
16.9267,177560
16.9341,174554
16.9415,187406
16.9489,197919
16.9562,193939
16.9636,194515
16.971,191596
16.9783,194445
16.9857,216792
16.9931,289804
17.0005,410273
17.0079,371374
17.0152,244289
17.0226,186983
17.03,181540
17.0374,175541
17.0447,171061
17.0521,169837
17.0595,162740
17.0669,154846
17.0742,150717
17.0816,153163
17.089,152582
17.0964,149461
17.1038,147850
17.1111,152276
17.1185,151360
17.1259,147516
17.1333,150819
17.1406,152512
17.148,153430
17.1554,155523
17.1627,164555
17.1701,179927
17.1775,176859
17.1849,167054
17.1923,162331
17.1996,154055
17.207,152816
17.2144,147623
17.2218,139238
17.2292,143734
17.2365,147737
17.2439,145870
17.2513,147141
17.2586,151714
17.266,140136
17.2734,138578
17.2808,141206
17.2882,139891
17.2955,141345
17.3029,142077
17.3103,133568
17.3177,139472
17.325,140936
17.3324,140998
17.3398,131875
17.3472,130296
17.3546,124534
17.3619,123947
17.3693,125230
17.3767,126007
17.384,124504
17.3914,124650
17.3988,124494
17.4062,118409
17.4136,114535
17.4209,113098
17.4283,113839
17.4357,110960
17.4431,107589
17.4504,109636
17.4578,110516
17.4652,109026
17.4726,113747
17.4799,113086
17.4873,117117
