D:\Data GC-MS-77B\2021\8 AUGUST\30-08-21\44676-21-3 LIQ YKK.D 30 Aug 21  03:11 pm
Start of data points
1.29373,6502
1.30047,6348
1.30722,6310
1.31397,6900
1.3207,82160
1.32745,1525634
1.33418,4919647
1.34093,4429357
1.34767,4609466
1.35442,4689668
1.36117,4702902
1.3679,4753379
1.37465,4948635
1.38138,5172101
1.38813,5320768
1.39487,5050213
1.40162,4145941
1.40837,2915321
1.4151,2186733
1.42185,1808479
1.42858,1540040
1.43533,1272513
1.44207,1008219
1.44882,771173
1.45557,569149
1.4623,419171
1.46905,306795
1.47578,223532
1.48253,163278
1.48927,121302
1.51013,152778
1.51752,114650
1.52488,89501
1.53227,71208
1.53963,59100
1.54702,48881
1.5544,42755
1.56177,39043
1.56915,35698
1.57652,33105
1.5839,31414
1.59127,29454
1.59865,28314
1.60603,28068
1.6134,28231
1.62078,28970
1.62815,30695
1.63553,30879
1.64292,30279
1.65028,28583
1.65767,26987
1.66503,26590
1.67242,26342
1.67978,25760
1.68717,24952
1.69455,25393
1.70192,23796
1.7093,24635
1.71667,24446
1.72405,23883
1.73143,24263
1.7388,24613
1.74618,23968
1.75355,23394
1.76093,23771
1.7683,24167
1.77568,23976
1.78307,23937
1.79043,23772
1.79782,23785
1.80518,23362
1.81257,23186
1.81995,22854
1.82732,23054
1.8347,22884
1.84207,22705
1.84945,23025
1.85682,22488
1.8642,22775
1.87158,23396
1.87895,23341
1.88633,22772
1.8937,23439
1.90108,23874
1.90845,24114
1.91583,22968
1.92322,22791
1.93058,23475
1.93797,22178
1.94533,22513
1.95272,22251
1.9601,22449
1.96747,22735
1.97485,22656
1.98222,22556
1.9896,23255
1.99697,22786
2.00435,23147
2.01173,22473
2.0191,21973
2.02648,22228
2.03385,23309
2.04123,22004
2.04862,22363
2.05598,22617
2.06337,22631
2.07073,22040
2.07812,22687
2.08548,21660
2.09287,21999
2.10025,21801
2.10762,21141
2.115,22193
2.12237,21474
2.12975,20997
2.13713,21221
2.1445,22576
2.15188,22276
2.15925,21714
2.16663,21715
2.174,22296
2.18138,21831
2.18877,21842
2.19613,21391
2.20352,21387
2.21088,21857
2.21827,21866
2.22565,22308
2.23302,20867
2.2404,21789
2.24777,21427
2.25515,21721
2.26252,21313
2.2699,20945
2.27728,21080
2.28465,21367
2.29203,22000
2.2994,21996
2.30678,21618
2.31417,21274
2.32153,21341
2.32892,21597
2.33628,21165
2.34367,20815
2.35103,21721
2.35842,21930
2.3658,22002
2.37317,21820
2.38055,21036
2.38792,21264
2.3953,21029
2.40268,21367
2.41005,21133
2.41743,20849
2.4248,21645
2.43218,21793
2.43955,22023
2.44693,21442
2.45432,21314
2.46168,21583
2.46907,21668
2.47643,21356
2.48382,20888
2.49118,21238
2.49857,21850
2.50595,22161
2.51332,22104
2.5207,22353
2.52807,22008
2.53545,22512
2.54283,21445
2.5502,21149
2.55758,21065
2.56495,20912
2.57233,21569
2.5797,21240
2.58708,21442
2.59447,22260
2.60183,21239
2.60922,21432
2.61658,21205
2.62397,21527
2.63135,21095
2.63872,21222
2.6461,20910
2.65347,21061
2.66085,20640
2.66822,21375
2.6756,21385
2.68298,20805
2.69035,21389
2.69773,21718
2.7051,21183
2.71248,21355
2.71987,21455
2.72723,21121
2.73462,21849
2.74198,22372
2.74937,21565
2.75673,21579
2.76412,21645
2.7715,21375
2.77887,21056
2.78625,22410
2.79362,21495
2.801,21509
2.80838,21736
2.81575,21319
2.82313,22125
2.8305,21798
2.83788,21038
2.84525,21000
2.85263,21031
2.86002,21111
2.86738,21414
2.87477,21058
2.88213,20930
2.88952,21360
2.8969,21681
2.90427,21388
2.91165,21009
2.91902,20681
2.9264,20917
2.93377,21581
2.94115,21343
2.94853,21174
2.9559,20551
2.96328,21397
2.97065,21793
2.97803,21182
2.98542,21526
2.99278,21494
3.00017,20930
3.00753,20435
3.01492,21798
3.02228,21457
3.02967,21271
3.03705,21278
3.04442,20887
3.0518,22151
3.05917,21883
3.06655,22312
3.07392,21921
3.0813,21610
3.08868,20823
3.09605,21281
3.10343,21271
3.1108,21563
3.11818,20698
3.12557,22314
3.13293,22422
3.14032,21189
3.14768,21106
3.15507,22228
3.16243,21702
3.16982,21052
3.1772,21220
3.18457,21298
3.19195,21012
3.19932,21021
3.2067,21636
3.21408,21394
3.22145,20863
3.22883,21264
3.2362,21783
3.24358,21282
3.25095,21057
3.25833,21483
3.26572,21230
3.27308,20157
3.28047,20610
3.28783,21465
3.29522,21547
3.3026,21531
3.30997,20447
3.31735,21146
3.32472,21938
3.3321,21040
3.33947,21303
3.34685,21571
3.35423,21595
3.3616,21669
3.36898,21940
3.37635,21669
3.38373,21426
3.39112,21435
3.39848,21799
3.40587,21982
3.41323,21441
3.42062,20918
3.42798,21147
3.43537,21570
3.44275,22294
3.45012,21790
3.4575,21412
3.46487,21488
3.47225,22037
3.47963,22092
3.487,21443
3.49438,22994
3.50175,24394
3.50913,23772
3.5165,23908
3.52388,24123
3.53127,23902
3.53863,28019
3.54602,30634
3.55338,29535
3.56077,25638
3.56815,23083
3.57552,22050
3.5829,23013
3.59027,25058
3.59765,25038
3.60502,24302
3.6124,23147
3.61978,22419
3.62715,21977
3.63453,21869
3.6419,21587
3.64928,21449
3.65665,22481
3.66403,22708
3.67142,23440
3.67878,22974
3.68617,22891
3.69353,22345
3.70092,21693
3.7083,21138
3.71567,21559
3.72305,21062
3.73042,21616
3.7378,21524
3.74517,21347
3.75255,22247
3.75993,22053
3.7673,22511
3.77468,22009
3.78205,22717
3.78943,22357
3.79682,22365
3.80418,22288
3.81157,23101
3.81893,22990
3.82632,22967
3.83368,21921
3.84107,21817
3.84845,22255
3.85582,21444
3.8632,21900
3.87057,22707
3.87795,22240
3.88533,23065
3.8927,25976
3.90008,26157
3.90745,24597
3.91483,23981
3.9222,23241
3.92958,22607
3.93697,22675
3.94433,22095
3.95172,22697
3.95908,22923
3.96647,22912
3.97385,22510
3.98122,23338
3.9886,23159
3.99597,22368
4.00335,22435
4.01072,21880
4.0181,22905
4.02548,22376
4.03285,22702
4.04023,22370
4.0476,22529
4.05498,21984
4.06237,21582
4.06973,22215
4.07712,22310
4.08448,22245
4.09187,22224
4.09923,21900
4.10662,21812
4.114,21652
4.12137,22047
4.12875,22120
4.13612,21906
4.1435,22037
4.15088,21936
4.15825,23367
4.16563,24391
4.173,25152
4.18038,24551
4.18775,25292
4.19513,24654
4.20252,24485
4.20988,24817
4.21727,25520
4.22463,25208
4.23202,25351
4.23938,26274
4.24677,25396
4.25415,24355
4.26152,24648
4.2689,25198
4.27627,24020
4.28365,24175
4.29103,24067
4.2984,24742
4.30578,24974
4.31315,26496
4.32053,28456
4.3279,27630
4.33528,25436
4.34267,24144
4.35003,24458
4.35742,24695
4.36478,25896
4.37217,24757
4.37955,23812
4.38692,24069
4.3943,24823
4.40167,24629
4.40905,24661
4.41642,24364
4.4238,24109
4.43118,24135
4.43855,23704
4.44593,22935
4.4533,22648
4.46068,23236
4.46807,22719
4.47543,22737
4.48282,22967
4.49018,22564
4.49757,22712
4.50493,23121
4.51232,22298
4.5197,22315
4.52707,23252
4.53445,24205
4.54182,23179
4.5492,23008
4.55658,21564
4.56395,22324
4.57133,23662
4.5787,23506
4.58608,23381
4.59345,22383
4.60083,22793
4.60822,22535
4.61558,22672
4.62297,22742
4.63033,22375
4.63772,21558
4.6451,22401
4.65247,30586
4.65985,51417
4.66722,60137
4.6746,44705
4.68197,29310
4.68935,23402
4.69673,22713
4.7041,22258
4.71148,22386
4.71885,22089
4.72623,21514
4.73362,23212
4.74098,35289
4.74837,91215
4.75573,156495
4.76312,130036
4.77048,67626
4.77787,33049
4.78525,24467
4.79262,22190
4.8,22349
4.80737,22084
4.81475,21262
4.82212,22467
4.8295,22574
4.83688,22640
4.84425,22302
4.85163,22153
4.859,21215
4.86638,21163
4.87377,21390
4.88113,22384
4.88852,20838
4.89588,20729
4.90327,21205
4.91063,20817
4.91802,22649
4.9254,21941
4.93277,23115
4.94015,23331
4.94752,23383
4.9549,22319
4.96228,22003
4.96965,22827
4.97703,22688
4.9844,22421
4.99178,21753
4.99915,22541
5.00653,21607
5.01392,20507
5.02128,21133
5.02867,24287
5.03603,46377
5.04342,88973
5.0508,88430
5.05817,49336
5.06555,26304
5.07292,22571
5.0803,27279
5.08767,36706
5.09505,32508
5.10243,24493
5.1098,21394
5.11718,20777
5.12455,21599
5.13193,21897
5.13932,21121
5.14668,20815
5.15407,19902
5.16143,20593
5.16882,21327
5.17618,22252
5.18357,21593
5.19095,21668
5.19832,22261
5.2057,23301
5.21307,22645
5.22045,22410
5.22783,21642
5.2352,22119
5.24258,23131
5.24995,22149
5.25733,20993
5.2647,19699
5.27208,20606
5.27947,21349
5.28683,21048
5.29422,22381
5.30158,23944
5.30897,23063
5.31635,21563
5.32372,21004
5.3311,21022
5.33847,21478
5.34585,20341
5.35322,20876
5.3606,22226
5.36798,24129
5.37535,24461
5.38273,25663
5.3901,26062
5.39748,23286
5.40487,22184
5.41223,24526
5.41962,29547
5.42698,29905
5.43437,27043
5.44173,24968
5.44912,23969
5.4565,23656
5.46387,22467
5.47125,22979
5.47862,27352
5.486,33206
5.49337,37366
5.50075,28917
5.50813,24241
5.5155,25564
5.52288,25049
5.53025,22406
5.53763,22491
5.54502,22317
5.55238,23397
5.55977,25457
5.56713,27051
5.57452,25477
5.58188,27823
5.58927,28658
5.59665,25687
5.60402,22314
5.6114,23272
5.61877,23614
5.62615,22981
5.63353,23004
5.6409,23970
5.64828,23748
5.65565,24423
5.66303,23491
5.6704,23049
5.67778,23244
5.68517,23996
5.69253,24289
5.69992,24997
5.70728,23603
5.71467,22518
5.72205,22179
5.72942,27604
5.7368,36065
5.74417,40148
5.75155,38881
5.75892,57100
5.7663,78809
5.77368,56820
5.78105,31282
5.78843,30979
5.7958,42737
5.80318,47077
5.81057,59867
5.81793,72656
5.82532,47570
5.83268,39494
5.84007,89281
5.84743,236491
5.85482,395835
5.8622,312070
5.86957,203938
5.87695,185580
5.88432,101982
5.8917,49584
5.89908,33300
5.90645,30460
5.91383,45894
5.9212,134687
5.92858,321681
5.93595,381611
5.94333,195870
5.95072,56791
5.95808,28861
5.96547,30487
5.97283,35347
5.98022,39543
5.98758,44336
5.99497,39480
6.00235,34555
6.00972,34718
6.0171,37871
6.02447,34013
6.03185,28937
6.03923,27731
6.0466,28960
6.05398,32629
6.06135,61498
6.06873,182835
6.0761,273494
6.08348,155415
6.09087,68599
6.09823,60941
6.10562,58371
6.11298,46471
6.12037,42271
6.12775,48792
6.13512,51518
6.1425,48042
6.14987,40737
6.15725,37510
6.16462,47333
6.172,70540
6.17938,70111
6.18675,47037
6.19413,45433
6.2015,42089
6.20888,46704
6.21627,264901
6.22363,1278732
6.23102,2240102
6.23838,1348430
6.24577,535931
6.25313,451530
6.26052,237641
6.2679,71251
6.27527,44780
6.28265,38644
6.29002,36776
6.2974,48639
6.30478,56692
6.31215,50521
6.31953,41889
6.3269,37543
6.33428,32610
6.34165,31971
6.34903,40198
6.35642,48050
6.36378,42957
6.37117,37254
6.37853,42213
6.38592,67552
6.3933,75045
6.40067,65807
6.40805,85501
6.41542,94103
6.4228,86305
6.43017,79288
6.43755,65773
6.44493,58086
6.4523,61237
6.45968,62686
6.46705,66783
6.47443,91289
6.48182,90943
6.48918,69934
6.49657,73586
6.50393,163782
6.51132,245774
6.51868,146086
6.52607,72487
6.53345,82250
6.54082,156277
6.5482,172141
6.55557,203676
6.56295,674763
6.57033,1147811
6.5777,769199
6.58508,256740
6.59245,92957
6.59983,63421
6.6072,57108
6.61458,57726
6.62197,68583
6.62933,84288
6.63672,122444
6.64408,171199
6.65147,168256
6.65883,147724
6.66622,107726
6.6736,87237
6.68097,114625
6.68835,176001
6.69572,196273
6.7031,122766
6.71048,91112
6.71785,114877
6.72523,266644
6.7326,420972
6.73998,289624
6.74735,117243
6.75473,69838
6.76212,62798
6.76948,66433
6.77687,69088
6.78423,59928
6.79162,60117
6.799,87150
6.80637,115016
6.81375,125494
6.82112,120848
6.8285,131836
6.83587,158315
6.84325,175510
6.85063,340856
6.858,476165
6.86538,536269
6.87275,878848
6.88013,828214
6.88752,492637
6.89488,360352
6.90227,190941
6.90963,251819
6.91702,507264
6.92438,730055
6.93177,712828
6.93915,556212
6.94652,1048037
6.9539,1425561
6.96127,992882
6.96865,604616
6.97603,259200
6.9834,129827
6.99078,152513
6.99815,205852
7.00553,178299
7.0129,128840
7.02028,106035
7.02767,176622
7.03503,452070
7.04242,534517
7.04978,414303
7.05717,456020
7.06455,317627
7.07192,162405
7.0793,120608
7.08667,104456
7.09405,93121
7.10142,85397
7.1088,98704
7.11618,118263
7.12355,121348
7.13093,113783
7.1383,112750
7.14568,149629
7.15307,382060
7.16043,1013993
7.16782,1072388
7.17518,708912
7.18257,1006907
7.18993,971724
7.19732,411655
7.2047,158034
7.21207,124705
7.21945,226685
7.22682,412500
7.2342,363514
7.24157,415314
7.24895,1309999
7.25633,1968614
7.2637,1144326
7.27108,393054
7.27845,253568
7.28583,460288
7.29322,717906
7.30058,518888
7.30797,217385
7.31533,132307
7.32272,155708
7.33008,255568
7.33747,556439
7.34485,1610775
7.35222,2187807
7.3596,1080377
7.36697,309251
7.37435,186366
7.38173,195459
7.3891,234032
7.39648,322881
7.40385,335627
7.41123,289586
7.4186,302149
7.42598,254086
7.43337,186599
7.44073,235344
7.44812,393178
7.45548,396186
7.46287,281346
7.47025,211452
7.47762,247042
7.485,478326
7.49237,741672
7.49975,557862
7.50712,327512
7.5145,338284
7.52188,396938
7.52925,408101
7.53663,434545
7.544,339556
7.55138,221956
7.55877,371434
7.56613,523842
7.57352,446738
7.58088,665082
7.58827,1610846
7.59563,1878103
7.60302,913469
7.6104,270555
7.61777,153218
7.62515,376150
7.63252,1518154
7.6399,2964837
7.64728,2108040
7.65465,633258
7.66203,219201
7.6694,169099
7.67678,130618
7.68415,116539
7.69153,166634
7.69892,247542
7.70628,318143
7.71367,361427
7.72103,327112
7.72842,295120
7.7358,297980
7.74317,447981
7.75055,471242
7.75792,318303
7.7653,351275
7.77267,416521
7.78005,350111
7.78743,413374
7.7948,672507
7.80218,703819
7.80955,384494
7.81693,298157
7.8243,316610
7.83168,337796
7.83907,435694
7.84643,915481
7.85382,1730309
7.86118,1516081
7.86857,1022282
7.87595,1002143
7.88332,594681
7.8907,413249
7.89807,517945
7.90545,507750
7.91282,559390
7.9202,671572
7.92758,666444
7.93495,627869
7.94233,440741
7.9497,635475
7.95708,991787
7.96447,1292388
7.97183,2245105
7.97922,2527038
7.98658,1955610
7.99397,1226747
8.00133,824477
8.00872,1350909
8.0161,1525924
8.02347,771901
8.03085,396962
8.03822,618543
8.0456,804805
8.05298,572920
8.06035,432548
8.06773,588245
8.0751,641147
8.08248,910014
8.08985,1145523
8.09723,1029834
8.10462,864404
8.11198,732461
8.11937,620068
8.12673,582989
8.13412,708192
8.1415,646593
8.14887,467936
8.15625,363067
8.16362,333369
8.171,299932
8.17837,331285
8.18575,550681
8.19313,896733
8.2005,757101
8.20788,365069
8.21525,224486
8.22263,205004
8.23002,242268
8.23738,275630
8.24477,338665
8.25213,387319
8.25952,363940
8.26688,355874
8.27427,544097
8.28165,846927
8.28902,1001768
8.2964,973099
8.30377,853655
8.31115,611849
8.31853,475123
8.3259,582394
8.33328,833496
8.34065,1717653
8.34803,2830105
8.3554,2469256
8.36278,1643911
8.37017,2835827
8.37753,5026146
8.38492,3799028
8.39228,1238151
8.39967,610975
8.40703,598064
8.41442,703814
8.4218,963980
8.42917,1356147
8.43655,1339268
8.44392,879095
8.4513,951546
8.45868,1550722
8.46605,1403407
8.47343,708283
8.4808,464818
8.48818,530547
8.49555,636746
8.50293,749394
8.51032,1258063
8.51768,1883059
8.52507,1348081
8.53243,694039
8.53982,543309
8.5472,697008
8.55457,982457
8.56195,796987
8.56932,599834
8.5767,569265
8.58407,488662
8.59145,523171
8.59883,756624
8.6062,783887
8.61358,610811
8.62095,454749
8.62833,366678
8.63572,347346
8.64308,613917
8.65047,1038206
8.65783,956177
8.66522,685085
8.67258,554695
8.67997,569942
8.68735,752527
8.69472,1106111
8.7021,1085994
8.70947,718253
8.71685,648660
8.72423,615201
8.7316,567615
8.73898,643987
8.74635,823946
8.75373,833930
8.7611,589223
8.76848,410001
8.77587,401478
8.78323,481570
8.79062,500943
8.79798,663432
8.80537,1032065
8.81275,1448532
8.82012,1484514
8.8275,1244664
8.83487,1264859
8.84225,1061331
8.84962,767739
8.857,593838
8.86438,581975
8.87175,678435
8.87913,728667
8.8865,965559
8.89388,990596
8.90127,867382
8.90863,1138533
8.91602,1186409
8.92338,852615
8.93077,707068
8.93813,794193
8.94552,1012209
8.9529,1141828
8.96027,1009055
8.96765,1095414
8.97502,1533716
8.9824,1362376
8.98977,1083645
8.99715,1500774
9.00453,1350599
9.0119,902283
9.01928,960351
9.02665,945501
9.03403,641717
9.04142,438174
9.04878,527029
9.05617,870097
9.06353,1421763
9.07092,1349653
9.07828,1554171
9.08567,2679637
9.09305,2344344
9.10042,1255084
9.1078,1096398
9.11517,1194221
9.12255,945717
9.12993,993922
9.1373,1649363
9.14468,1695152
9.15205,1142380
9.15943,741461
9.1668,643691
9.17418,711549
9.18157,660642
9.18893,695267
9.19632,829742
9.20368,819854
9.21107,625419
9.21845,518774
9.22582,660464
9.2332,1015334
9.24057,1108589
9.24795,950483
9.25532,955026
9.2627,1059347
9.27008,1124355
9.27745,1123165
9.28483,1018547
9.2922,1017814
9.29958,1054644
9.30697,921347
9.31433,841995
9.32172,1102318
9.32908,2125878
9.33647,5355538
9.34383,8332909
9.35122,4867270
9.3586,1375289
9.36597,937411
9.37335,943650
9.38072,897923
9.3881,941853
9.39548,1256241
9.40285,1430748
9.41023,1599198
9.4176,1541102
9.42498,1471072
9.43235,2072946
9.43973,2246130
9.44712,1625663
9.45448,1046739
9.46187,742033
9.46923,745145
9.47662,822877
9.484,909609
9.49137,1113571
9.49875,1127522
9.50612,1325881
9.5135,1678445
9.52087,1374560
9.52825,853553
9.53563,665111
9.543,698640
9.55038,680661
9.55775,652115
9.56513,670650
9.5725,631739
9.57988,544844
9.58727,649092
9.59463,1072936
9.60202,1566292
9.60938,1456565
9.61677,1078061
9.62415,1111870
9.63152,1629299
9.6389,2202005
9.64627,1847438
9.65365,1286892
9.66102,1194395
9.6684,1213824
9.67578,1279495
9.68315,1077413
9.69053,865930
9.6979,925307
9.70528,1116662
9.71267,1325242
9.72003,1337968
9.72742,1097904
9.73478,868362
9.74217,758729
9.74953,785483
9.75692,820478
9.7643,769831
9.77167,816472
9.77905,970540
9.78642,1135122
9.7938,1789969
9.80118,2467811
9.80855,1993587
9.81593,1207828
9.8233,1036914
9.83068,1294079
9.83805,1224419
9.84543,993415
9.85282,995663
9.86018,1273577
9.86757,1558377
9.87493,1867024
9.88232,1970797
9.8897,1777064
9.89707,1366697
9.90445,998370
9.91182,1169329
9.9192,1944253
9.92657,2024126
9.93395,1261484
9.94133,1057661
9.9487,986386
9.95608,895383
9.96345,862971
9.97083,873568
9.97822,1313902
9.98558,2227465
9.99297,2340403
10.0003,1726842
10.0077,1557518
10.0151,1363324
10.0225,1080879
10.0299,1239404
10.0372,2728530
10.0446,4645444
10.052,3364453
10.0594,1311720
10.0667,851421
10.0741,921450
10.0815,981485
10.0889,910076
10.0962,927070
10.1036,1022480
10.111,913693
10.1184,781942
10.1257,830790
10.1331,977082
10.1405,1107184
10.1479,1167979
10.1553,1218641
10.1626,1237767
10.17,1116421
10.1774,1098663
10.1848,1147690
10.1921,1060136
10.1995,1156488
10.2069,1329815
10.2143,1418425
10.2216,1407457
10.229,1828303
10.2364,3564349
10.2438,8201184
10.2511,11700986
10.2585,7406319
10.2659,1988880
10.2733,1444803
10.2806,1851823
10.288,1921688
10.2954,1395705
10.3028,1243052
10.3102,1431199
10.3175,1993329
10.3249,2196928
10.3323,1977395
10.3397,2004785
10.347,1791616
10.3544,1339914
10.3618,1200278
10.3692,1241757
10.3765,1369089
10.3839,1568444
10.3913,1430425
10.3987,1055773
10.406,1025648
10.4134,1089945
10.4208,1036368
10.4282,1174137
10.4356,1540109
10.4429,1567283
10.4503,1363073
10.4577,1198679
10.4651,1260291
10.4724,1381721
10.4798,1307532
10.4872,1205862
10.4946,1152319
10.5019,1035782
10.5093,1102617
10.5167,1215006
10.5241,1254149
10.5314,1317988
10.5388,1459668
10.5462,1584654
10.5536,1530963
10.561,1439638
10.5683,1703269
10.5757,1967925
10.5831,1784049
10.5905,1488643
10.5978,1570918
10.6052,1910824
10.6126,1931220
10.62,1516644
10.6273,1442968
10.6347,1795396
10.6421,1932955
10.6495,1791280
10.6568,1837486
10.6642,1925552
10.6716,2078522
10.679,2054055
10.6863,1599416
10.6937,1436216
10.7011,1820289
10.7085,2257408
10.7159,2700949
10.7232,2551522
10.7306,2088107
10.738,1858969
10.7454,2032855
10.7527,2515218
10.7601,2172964
10.7675,1688524
10.7749,2813693
10.7822,5618953
10.7896,6724949
10.797,4708333
10.8044,2447872
10.8117,1768674
10.8191,1656532
10.8265,1389679
10.8339,1292910
10.8413,1290718
10.8486,1624985
10.856,2529068
10.8634,2300459
10.8708,1480186
10.8781,1347131
10.8855,1538607
10.8929,1692980
10.9003,1643587
10.9076,1423519
10.915,1261539
10.9224,1168124
10.9298,1138394
10.9371,1422981
10.9445,1949823
10.9519,2159234
10.9593,1848654
10.9667,1465185
10.974,1259697
10.9814,1557890
10.9888,2062320
10.9962,1954169
11.0035,1458709
11.0109,1225075
11.0183,1150471
11.0257,1196401
11.033,1327497
11.0404,1715366
11.0478,1955466
11.0552,1697340
11.0625,1474994
11.0699,1460587
11.0773,1562839
11.0847,2452305
11.092,5942845
11.0994,11415539
11.1068,14066164
11.1142,7056821
11.1216,2262745
11.1289,1614710
11.1363,1541967
11.1437,1648320
11.1511,1717236
11.1584,1857843
11.1658,1952710
11.1732,1997381
11.1806,1900359
11.1879,1731599
11.1953,1647816
11.2027,1583582
11.2101,1671257
11.2174,1807352
11.2248,1919817
11.2322,1810441
11.2396,1518799
11.247,1320992
11.2543,1286745
11.2617,1331047
11.2691,1425776
11.2765,1518099
11.2838,1692037
11.2912,1782904
11.2986,1610162
11.306,1350370
11.3133,1345021
11.3207,1375739
11.3281,1385356
11.3355,1610235
11.3428,1653565
11.3502,1396205
11.3576,1308527
11.365,1283938
11.3724,1317933
11.3797,1407529
11.3871,1471713
11.3945,1392171
11.4019,1277470
11.4092,1115789
11.4166,1093220
11.424,1243704
11.4314,1315335
11.4387,1337599
11.4461,1379137
11.4535,1357339
11.4609,1476623
11.4682,1984250
11.4756,2505503
11.483,2434388
11.4904,2160011
11.4977,2140048
11.5051,1785867
11.5125,1843241
11.5199,2296420
11.5273,2359899
11.5346,2001963
11.542,2096753
11.5494,2146712
11.5568,1720797
11.5641,1926118
11.5715,2867841
11.5789,3037627
11.5863,2331998
11.5936,1536653
11.601,1449264
11.6084,2154793
11.6158,2965396
11.6231,2622374
11.6305,2240468
11.6379,2555938
11.6453,2551651
11.6527,2083121
11.66,1820144
11.6674,1929209
11.6748,2541051
11.6822,2566214
11.6895,1669680
11.6969,1284188
11.7043,1392879
11.7117,1534005
11.719,1562781
11.7264,1649095
11.7338,1548256
11.7412,1492171
11.7485,1464972
11.7559,1450556
11.7633,1464075
11.7707,1422715
11.7781,1438026
11.7854,1550877
11.7928,1625339
11.8002,1570877
11.8076,1491576
11.8149,1400341
11.8223,1356468
11.8297,1381389
11.8371,1592559
11.8444,1748421
11.8518,1667222
11.8592,1446904
11.8666,1343508
11.8739,1382390
11.8813,1403145
11.8887,1689415
11.8961,3962264
11.9035,9384498
11.9108,13300442
11.9182,8219275
11.9256,2361112
11.933,1554095
11.9403,1592432
11.9477,1678419
11.9551,1894183
11.9625,2054243
11.9698,1955427
11.9772,1820833
11.9846,1791967
11.992,1714821
11.9993,1683166
12.0067,1628459
12.0141,1506396
12.0215,1446347
12.0288,1400413
12.0362,1293510
12.0436,1319280
12.051,1628474
12.0584,1818244
12.0657,1654507
12.0731,1607510
12.0805,1717583
12.0879,1620485
12.0952,1437911
12.1026,1482275
12.11,1515074
12.1174,1450908
12.1247,1431591
12.1321,1493239
12.1395,1546242
12.1469,1469360
12.1542,1353163
12.1616,1358598
12.169,1449599
12.1764,1480482
12.1838,1448739
12.1911,1356674
12.1985,1302777
12.2059,1270171
12.2133,1208783
12.2206,1243090
12.228,1320785
12.2354,1374295
12.2428,1519097
12.2501,1887277
12.2575,2139694
12.2649,2072126
12.2723,2484379
12.2796,3963460
12.287,5126500
12.2944,4375267
12.3018,2623697
12.3092,1924590
12.3165,1518373
12.3239,1370369
12.3313,1381002
12.3387,1435408
12.346,1646393
12.3534,1948475
12.3608,1761534
12.3682,1478238
12.3755,1580610
12.3829,1923467
12.3903,2573795
12.3977,2941739
12.405,2198065
12.4124,1471142
12.4198,1314303
12.4272,1381475
12.4345,1568852
12.4419,1716793
12.4493,1936098
12.4567,2101684
12.4641,1645605
12.4714,1270379
12.4788,1314970
12.4862,1341662
12.4936,1288767
12.5009,1254050
12.5083,1291488
12.5157,1335205
12.5231,1259927
12.5304,1178088
12.5378,1183492
12.5452,1323990
12.5526,1530555
12.5599,1480208
12.5673,1403326
12.5747,1404302
12.5821,1429194
12.5895,1438785
12.5968,1444837
12.6042,1391159
12.6116,1290026
12.619,1247155
12.6263,1298559
12.6337,1331329
12.6411,1345035
12.6485,1467523
12.6558,2225906
12.6632,5435851
12.6706,9958619
12.678,9911287
12.6853,3801977
12.6927,1356959
12.7001,1558628
12.7075,3186260
12.7149,6307322
12.7222,7448159
12.7296,4591328
12.737,2104957
12.7444,1691439
12.7517,1738784
12.7591,1666268
12.7665,1569974
12.7739,1481640
12.7812,1403264
12.7886,1309914
12.796,1276902
12.8034,1206227
12.8107,1235720
12.8181,1256285
12.8255,1281205
12.8329,1319824
12.8402,1373876
12.8476,1432809
12.855,1370271
12.8624,1285835
12.8698,1271831
12.8771,1274301
12.8845,1292070
12.8919,1288441
12.8993,1223158
12.9066,1193863
12.914,1250722
12.9214,1351671
12.9288,1511822
12.9361,1483693
12.9435,1286972
12.9509,1192847
12.9583,1185154
12.9656,1109020
12.973,1139821
12.9804,1425106
12.9878,1806864
12.9952,2050192
13.0025,2039803
13.0099,1820190
13.0173,1664191
13.0247,1451171
13.032,1308144
13.0394,1396213
13.0468,1607075
13.0542,1774017
13.0615,1763818
13.0689,1531748
13.0763,1284915
13.0837,1319330
13.091,1626667
13.0984,1664356
13.1058,1312119
13.1132,1124014
13.1206,1255251
13.1279,1787178
13.1353,2167798
13.1427,1856098
13.1501,1499384
13.1574,1281366
13.1648,1371426
13.1722,1606434
13.1796,1495681
13.1869,1572203
13.1943,1782216
13.2017,1572348
13.2091,1263316
13.2164,1138397
13.2238,1098872
13.2312,1178510
13.2386,1174887
13.2459,1143482
13.2533,1117157
13.2607,1165628
13.2681,1251518
13.2755,1256430
13.2828,1176159
13.2902,1109488
13.2976,1085169
13.305,1152691
13.3123,1287892
13.3197,1302987
13.3271,1237382
13.3345,1186338
13.3418,1167441
13.3492,1227812
13.3566,1250728
13.364,1210501
13.3713,1162275
13.3787,1342259
13.3861,3137570
13.3935,7008622
13.4009,8480219
13.4082,4300689
13.4156,1422475
13.423,1139586
13.4304,1207103
13.4377,1183847
13.4451,1233742
13.4525,1632028
13.4599,2827787
13.4672,4786214
13.4746,5343509
13.482,3259867
13.4894,1643907
13.4967,1289497
13.5041,1156800
13.5115,1093009
13.5189,1069037
13.5263,1054316
13.5336,1023141
13.541,1058908
13.5484,1043205
13.5558,1003988
13.5631,1026514
13.5705,1013427
13.5779,1009212
13.5853,1032884
13.5926,1084484
13.6,1114104
13.6074,1080066
13.6148,1017669
13.6221,950410
13.6295,970691
13.6369,1086710
13.6443,1235077
13.6517,1286163
13.659,1183749
13.6664,1027104
13.6738,974675
13.6812,1168226
13.6885,1399470
13.6959,1375748
13.7033,1283294
13.7107,1262104
13.718,1291048
13.7254,1251857
13.7328,1079163
13.7402,992604
13.7475,1085519
13.7549,1171571
13.7623,1078741
13.7697,996143
13.777,1009524
13.7844,1069156
13.7918,1124338
13.7992,1280751
13.8066,1204548
13.8139,1076311
13.8213,1081780
13.8287,1225462
13.8361,1355597
13.8434,1200313
13.8508,997013
13.8582,1008062
13.8656,1120848
13.8729,1124180
13.8803,1000090
13.8877,1099753
13.8951,1433315
13.9024,1565541
13.9098,1283766
13.9172,1004052
13.9246,961814
13.932,930419
13.9393,905494
13.9467,911219
13.9541,970820
13.9615,995659
13.9688,1032355
13.9762,1061544
13.9836,1001170
13.991,944013
13.9983,944889
14.0057,918977
14.0131,878182
14.0205,886479
14.0278,1067243
14.0352,1479247
14.0426,1812801
14.05,1581555
14.0574,1173216
14.0647,1010501
14.0721,1436419
14.0795,3576038
14.0869,6195497
14.0942,4943583
14.1016,1793252
14.109,982775
14.1164,923178
14.1237,910255
14.1311,901457
14.1385,943733
14.1459,964171
14.1532,1046820
14.1606,1100739
14.168,1011000
14.1754,1005691
14.1827,1066651
14.1901,1085169
14.1975,1008286
14.2049,909501
14.2123,840581
14.2196,860016
14.227,900223
14.2344,915360
14.2418,878486
14.2491,820600
14.2565,858345
14.2639,894752
14.2713,866084
14.2786,814874
14.286,841766
14.2934,901792
14.3008,964808
14.3081,946728
14.3155,863014
14.3229,865935
14.3303,934846
14.3377,1015149
14.345,1100567
14.3524,1117867
14.3598,1080619
14.3672,1040105
14.3745,969335
14.3819,998917
14.3893,990186
14.3967,895047
14.404,896072
14.4114,935229
14.4188,915778
14.4262,820760
14.4335,776095
14.4409,780226
14.4483,848179
14.4557,992589
14.4631,1002457
14.4704,913025
14.4778,921641
14.4852,1107910
14.4926,1092991
14.4999,903556
14.5073,834487
14.5147,849381
14.5221,844339
14.5294,867272
14.5368,1118415
14.5442,1200702
14.5516,977320
14.5589,841577
14.5663,899902
14.5737,1029778
14.5811,971881
14.5884,843375
14.5958,797217
14.6032,862644
14.6106,964686
14.618,964569
14.6253,866696
14.6327,799201
14.6401,770789
14.6475,771121
14.6548,767560
14.6622,775946
14.6696,763216
14.677,771206
14.6843,783925
14.6917,1037041
14.6991,2415978
14.7065,4565212
14.7138,3880842
14.7212,1416099
14.7286,851563
14.736,788317
14.7434,766477
14.7507,799953
14.7581,774986
14.7655,764862
14.7729,769640
14.7802,800796
14.7876,851180
14.795,800555
14.8024,783755
14.8097,801276
14.8171,856857
14.8245,869346
14.8319,808289
14.8392,733017
14.8466,698566
14.854,694235
14.8614,687808
14.8688,667922
14.8761,675503
14.8835,671906
14.8909,684188
14.8983,678085
14.9056,657304
14.913,715481
14.9204,829725
14.9278,945284
14.9351,919402
14.9425,834133
14.9499,792854
14.9573,799949
14.9646,801287
14.972,793395
14.9794,711964
14.9868,714475
14.9941,750552
15.0015,742329
15.0089,705974
15.0163,687723
15.0237,715623
15.031,779764
15.0384,778068
15.0458,737336
15.0532,756416
15.0605,869831
15.0679,807059
15.0753,693716
15.0827,673447
15.09,668954
15.0974,654744
15.1048,710728
15.1122,832443
15.1195,902759
15.1269,1009340
15.1343,1021182
15.1417,881824
15.1491,781002
15.1564,823714
15.1638,871533
15.1712,764558
15.1786,705464
15.1859,683418
15.1933,697375
15.2007,687787
15.2081,641467
15.2154,610212
15.2228,598533
15.2302,609439
15.2376,671786
15.2449,1210311
15.2523,2917683
15.2597,3216212
15.2671,1335638
15.2745,719464
15.2818,637010
15.2892,620924
15.2966,622148
15.304,644156
15.3113,634949
15.3187,593333
15.3261,603519
15.3335,651603
15.3408,693592
15.3482,642620
15.3556,610651
15.363,625051
15.3703,619247
15.3777,604242
15.3851,593007
15.3925,574956
15.3999,567383
15.4072,569163
15.4146,615903
15.422,712098
15.4294,719648
15.4367,656341
15.4441,659047
15.4515,685933
15.4589,687335
15.4662,709660
15.4736,701069
15.481,639835
15.4884,628789
15.4957,578555
15.5031,562786
15.5105,591705
15.5179,596812
15.5252,564125
15.5326,555053
15.54,587746
15.5474,637548
15.5548,598415
15.5621,601800
15.5695,672074
15.5769,656400
15.5843,589458
15.5916,591616
15.599,604976
15.6064,618770
15.6138,663559
15.6211,641655
15.6285,561983
15.6359,551022
15.6433,622452
15.6506,622902
15.658,616008
15.6654,589084
15.6728,581826
15.6802,649648
15.6875,630812
15.6949,554959
15.7023,531622
15.7097,517856
15.717,503625
15.7244,501011
15.7318,625343
15.7392,1524213
15.7465,2186579
15.7539,1209030
15.7613,649720
15.7687,551650
15.776,559805
15.7834,587461
15.7908,599600
15.7982,603131
15.8056,629417
15.8129,610126
15.8203,581093
15.8277,591472
15.8351,623483
15.8424,597982
15.8498,568984
15.8572,558417
15.8646,541065
15.8719,521482
15.8793,519119
15.8867,512220
15.8941,511778
15.9014,532997
15.9088,624658
15.9162,729649
15.9236,680166
15.9309,595025
15.9383,553177
15.9457,541036
15.9531,557836
15.9605,544040
15.9678,513091
15.9752,523911
15.9826,498350
15.99,487993
15.9973,498699
16.0047,526830
16.0121,543809
16.0194,554045
16.0268,586772
16.0342,569776
16.0416,521847
16.049,521772
16.0563,523545
16.0637,513524
16.0711,540500
16.0785,525003
16.0859,493838
16.0932,478223
16.1006,487122
16.108,512015
16.1153,522633
16.1227,491637
16.1301,461735
16.1375,455229
16.1449,470726
16.1522,504189
16.1596,499988
16.167,467815
16.1744,453772
16.1817,602897
16.1891,1159290
16.1965,1203270
16.2039,644915
16.2113,491353
16.2186,454413
16.226,446418
16.2334,462598
16.2407,459075
16.2481,454059
16.2555,453189
16.2629,462298
16.2703,479192
16.2776,493127
16.285,485750
16.2924,479037
16.2998,469616
16.3071,461237
16.3145,453627
16.3219,449484
16.3293,440575
16.3366,439435
16.344,449017
16.3514,461884
16.3588,470289
16.3662,454452
16.3735,440495
16.3809,447599
16.3883,444315
16.3957,433591
16.403,431872
16.4104,423737
16.4178,439646
16.4251,437055
16.4325,412410
16.4399,392574
16.4473,398508
16.4547,410419
16.462,416128
16.4694,411584
16.4768,421522
16.4842,410076
16.4916,392709
16.4989,387877
16.5063,388048
16.5137,381998
16.521,397607
16.5284,404916
16.5358,388675
16.5432,379244
16.5506,383806
16.5579,381357
16.5653,389629
16.5727,408879
16.5801,424755
16.5874,419811
16.5948,402376
16.6022,387797
16.6096,379799
16.6169,376774
16.6243,385202
16.6317,408133
16.6391,475951
16.6465,686342
16.6538,694381
16.6612,509753
16.6686,425849
16.676,408930
16.6833,409551
16.6907,429673
16.6981,430635
16.7055,420020
16.7128,403375
16.7202,387156
16.7276,372790
16.735,368389
16.7423,364105
16.7497,363356
16.7571,367914
16.7645,372202
16.7719,376002
16.7792,361810
16.7866,353668
16.794,347658
16.8013,345925
16.8087,345162
16.8161,366134
16.8235,372705
16.8309,368701
16.8382,357370
16.8456,349709
16.853,349176
16.8604,343694
16.8677,349105
16.8751,347509
16.8825,340629
16.8899,340027
16.8973,339505
16.9046,334904
16.912,331785
16.9194,335532
16.9267,337625
16.9341,345587
16.9415,349037
16.9489,342635
16.9563,344041
16.9636,339119
16.971,327375
16.9784,320189
16.9858,316237
16.9931,317708
17.0005,314776
17.0079,317093
17.0153,321969
17.0226,316999
17.03,309214
17.0374,303991
17.0448,298308
17.0522,299845
17.0595,300203
17.0669,303466
17.0743,303631
17.0817,308254
17.089,308294
17.0964,305424
17.1038,307884
17.1112,307850
17.1185,308760
17.1259,313415
17.1333,342345
17.1407,416410
17.1481,452631
17.1554,394852
17.1628,339115
17.1702,317669
17.1776,309397
17.1849,310432
17.1923,309195
17.1997,306664
17.207,297414
17.2144,295259
17.2218,294504
17.2292,294768
17.2366,289619
17.2439,286630
17.2513,287070
17.2587,285322
17.2661,286619
17.2734,284897
17.2808,286127
17.2882,287479
17.2956,289425
17.3029,285623
17.3103,285920
17.3177,290420
17.3251,299188
17.3325,301471
17.3398,294852
17.3472,292800
17.3546,290715
17.362,283516
17.3693,278978
17.3767,278776
17.3841,274087
17.3915,277847
17.3988,273590
17.4062,269399
17.4136,271705
17.421,272180
17.4283,273264
17.4357,275115
17.4431,270517
17.4505,275631
17.4579,271756
17.4652,277972
17.4726,277345
17.48,283021
17.4873,281952
