D:\Data GC-MS-77B\2021\9 SEPTEMBER\01-09-21\45790-21-1 LQ DM.D 01 Sep 21  06:42 pm
Start of data points
1.2938,5952
1.30055,5882
1.3073,6045
1.31403,6077
1.32078,6132
1.32752,6477
1.33427,15686
1.341,109287
1.34775,390690
1.3545,671468
1.36123,764390
1.36798,712988
1.37472,599386
1.38147,470949
1.3882,360372
1.39495,267766
1.4017,193431
1.40843,144073
1.41518,104998
1.42192,76676
1.42867,56731
1.4354,43205
1.44215,33430
1.44888,26728
1.45563,21455
1.46238,17905
1.46912,15434
1.47587,13365
1.4826,11989
1.48935,11146
1.51022,23941
1.51758,22807
1.52497,22138
1.53233,23149
1.53972,27512
1.54708,36386
1.55447,44099
1.56185,49738
1.56922,51644
1.5766,51300
1.58397,48706
1.59135,46885
1.59873,44112
1.6061,41365
1.61348,40213
1.62085,37398
1.62823,36462
1.6356,34470
1.64298,33040
1.65037,31330
1.65773,31066
1.66512,29515
1.67248,28837
1.67987,27484
1.68725,27012
1.69462,27317
1.702,26043
1.70937,26559
1.71675,25869
1.72412,24860
1.7315,24642
1.73888,24748
1.74625,24449
1.75363,23679
1.761,23466
1.76838,23377
1.77577,23450
1.78313,22803
1.79052,22231
1.79788,23288
1.80527,23043
1.81263,22638
1.82002,22417
1.8274,21994
1.83477,22450
1.84215,22147
1.84952,21853
1.8569,22692
1.86428,21935
1.87165,22004
1.87903,21467
1.8864,21106
1.89378,21631
1.90115,21298
1.90853,21350
1.91592,21549
1.92328,21548
1.93067,21021
1.93803,21095
1.94542,20747
1.9528,20800
1.96017,20732
1.96755,20641
1.97492,21030
1.9823,20987
1.98967,21208
1.99705,20357
2.00443,20721
2.0118,20434
2.01918,20652
2.02655,20864
2.03393,20322
2.04132,19771
2.04868,20933
2.05607,20533
2.06343,20432
2.07082,20032
2.07818,20777
2.08557,19534
2.09295,19835
2.10032,20061
2.1077,20369
2.11507,20063
2.12245,20036
2.12982,20061
2.1372,20508
2.14458,20506
2.15195,20062
2.15933,20181
2.1667,19980
2.17408,20073
2.18147,19899
2.18883,19932
2.19622,20761
2.20358,20820
2.21097,19594
2.21833,20071
2.22572,19743
2.2331,20368
2.24047,20381
2.24785,20028
2.25522,20092
2.2626,20110
2.26998,19238
2.27735,19793
2.28473,19950
2.2921,19772
2.29948,19811
2.30685,19812
2.31423,19773
2.32162,20092
2.32898,19057
2.33637,19257
2.34373,19421
2.35112,19615
2.3585,19027
2.36587,19806
2.37325,19685
2.38062,19699
2.388,19427
2.39537,19064
2.40275,19630
2.41013,19679
2.4175,19712
2.42488,19758
2.43225,19431
2.43963,19468
2.44702,19265
2.45438,20065
2.46177,19415
2.46913,20083
2.47652,19610
2.48388,19553
2.49127,19643
2.49865,19507
2.50602,19165
2.5134,19551
2.52077,19678
2.52815,19289
2.53553,19654
2.5429,19656
2.55028,19400
2.55765,19112
2.56503,19685
2.5724,19768
2.57978,19040
2.58717,19402
2.59453,19141
2.60192,19584
2.60928,19111
2.61667,19645
2.62405,18736
2.63142,19572
2.6388,18794
2.64617,19460
2.65355,19965
2.66092,19670
2.6683,19519
2.67568,19404
2.68305,19515
2.69043,18946
2.6978,18805
2.70518,19040
2.71255,19199
2.71993,19619
2.72732,19654
2.73468,19324
2.74207,20062
2.74943,19344
2.75682,19756
2.7642,19382
2.77157,19458
2.77895,19410
2.78632,19626
2.7937,18909
2.80107,19589
2.80845,19891
2.81583,19257
2.8232,19160
2.83058,19431
2.83795,18996
2.84533,19063
2.85272,19327
2.86008,19495
2.86747,19335
2.87483,19285
2.88222,19465
2.88958,19154
2.89697,19516
2.90435,19238
2.91172,18933
2.9191,18913
2.92647,19086
2.93385,19417
2.94123,18998
2.9486,19609
2.95598,19891
2.96335,19420
2.97073,19662
2.9781,19367
2.98548,19025
2.99287,19937
3.00023,19697
3.00762,19352
3.01498,19691
3.02237,20214
3.02975,19520
3.03712,20107
3.0445,19748
3.05187,19787
3.05925,19570
3.06662,19725
3.074,19747
3.08138,19478
3.08875,19682
3.09613,19549
3.1035,18788
3.11088,18743
3.11827,19329
3.12563,19355
3.13302,20079
3.14038,19660
3.14777,19628
3.15513,19850
3.16252,19667
3.1699,19548
3.17727,20196
3.18465,19978
3.19202,19608
3.1994,19055
3.20678,19311
3.21415,18856
3.22153,19474
3.2289,19926
3.23628,20016
3.24365,20132
3.25103,19948
3.25842,19665
3.26578,19705
3.27317,19118
3.28053,20141
3.28792,19389
3.29528,19876
3.30267,19688
3.31005,20425
3.31742,19434
3.3248,19809
3.33217,19808
3.33955,19440
3.34693,19581
3.3543,18983
3.36168,19411
3.36905,19193
3.37643,19541
3.3838,19108
3.39118,19910
3.39857,19493
3.40593,19062
3.41332,19087
3.42068,19845
3.42807,19491
3.43545,19591
3.44282,20294
3.4502,19499
3.45757,19661
3.46495,19525
3.47232,19446
3.4797,19613
3.48708,19548
3.49445,19241
3.50183,19574
3.5092,20229
3.51658,19534
3.52397,19731
3.53133,19253
3.53872,19312
3.54608,19109
3.55347,19951
3.56083,19879
3.56822,19789
3.5756,19927
3.58297,20046
3.59035,19972
3.59772,20042
3.6051,19771
3.61248,19601
3.61985,19474
3.62723,19836
3.6346,20244
3.64198,20392
3.64935,19785
3.65673,20059
3.66412,20390
3.67148,20100
3.67887,19968
3.68623,19742
3.69362,20646
3.701,20270
3.70837,19794
3.71575,20005
3.72312,19700
3.7305,20157
3.73787,20040
3.74525,20162
3.75263,19663
3.76,20004
3.76738,20722
3.77475,20418
3.78213,19539
3.78952,19957
3.79688,20089
3.80427,19985
3.81163,20183
3.81902,19947
3.82638,19457
3.83377,20570
3.84115,19577
3.84852,20124
3.8559,20711
3.86327,19833
3.87065,20144
3.87802,19542
3.8854,20409
3.89278,20389
3.90015,20236
3.90753,21191
3.9149,20572
3.92228,20120
3.92967,20115
3.93703,20235
3.94442,20047
3.95178,20037
3.95917,19991
3.96653,19966
3.97392,19847
3.9813,20006
3.98867,20250
3.99605,20109
4.00342,19867
4.0108,19737
4.01818,20218
4.02555,19912
4.03293,20276
4.0403,20170
4.04768,20843
4.05505,20332
4.06243,19934
4.06982,20197
4.07718,20557
4.08457,19653
4.09193,19984
4.09932,20241
4.1067,19711
4.11407,21135
4.12145,20007
4.12882,20181
4.1362,20075
4.14357,19656
4.15095,20298
4.15833,20011
4.1657,19277
4.17308,19438
4.18045,18593
4.18783,18549
4.19522,19512
4.20258,19203
4.20997,19668
4.21733,19191
4.22472,19596
4.23208,19290
4.23947,20994
4.24685,20571
4.25422,19424
4.2616,19110
4.26897,20323
4.27635,19801
4.28373,19909
4.2911,19140
4.29848,20241
4.30585,19802
4.31323,20176
4.3206,20700
4.32798,20996
4.33537,20417
4.34273,20599
4.35012,20608
4.35748,21019
4.36487,22618
4.37225,22275
4.37962,20422
4.387,20227
4.39437,20976
4.40175,20002
4.40912,20479
4.4165,20622
4.42388,20448
4.43125,20357
4.43863,20378
4.446,19435
4.45338,20259
4.46075,20305
4.46813,20319
4.47552,20142
4.48288,20213
4.49027,19987
4.49763,20222
4.50502,19735
4.5124,20316
4.51977,20303
4.52715,20105
4.53452,19908
4.5419,21170
4.54927,20544
4.55665,19835
4.56403,19642
4.5714,20404
4.57878,21059
4.58615,20973
4.59353,19618
4.60092,20046
4.60828,19521
4.61567,20089
4.62303,19759
4.63042,20017
4.63778,19544
4.64517,19549
4.65255,19693
4.65992,22358
4.6673,25106
4.67467,24902
4.68205,22529
4.68943,19709
4.6968,19463
4.70418,19802
4.71155,19750
4.71893,19383
4.7263,20114
4.73368,19718
4.74107,20356
4.74843,23464
4.75582,28147
4.76318,27033
4.77057,21960
4.77795,20060
4.78532,20534
4.7927,19645
4.80007,19761
4.80745,20283
4.81482,19706
4.8222,20402
4.82958,20277
4.83695,20320
4.84433,20643
4.8517,20237
4.85908,19710
4.86647,19683
4.87383,19739
4.88122,19508
4.88858,19822
4.89597,19321
4.90333,19949
4.91072,19889
4.9181,20995
4.92547,21138
4.93285,21233
4.94022,23018
4.9476,21868
4.95498,20831
4.96235,20568
4.96973,22793
4.9771,24599
4.98448,22203
4.99185,21032
4.99923,21985
5.00662,21342
5.01398,20329
5.02137,20904
5.02873,20429
5.03612,20868
5.0435,21873
5.05087,21782
5.05825,21500
5.06562,20410
5.073,20542
5.08037,30498
5.08775,60311
5.09513,69281
5.1025,36417
5.10988,22598
5.11725,21462
5.12463,20950
5.132,19685
5.13938,20016
5.14677,19213
5.15413,19484
5.16152,18856
5.16888,20457
5.17627,21446
5.18365,22326
5.19102,21766
5.1984,21917
5.20577,24476
5.21315,23888
5.22052,22003
5.2279,21050
5.23528,21027
5.24265,22204
5.25003,21835
5.2574,21182
5.26478,20532
5.27217,19855
5.27953,21169
5.28692,22186
5.29428,23105
5.30167,25080
5.30903,25154
5.31642,22417
5.3238,21207
5.33117,20826
5.33855,21279
5.34592,21482
5.3533,20905
5.36068,23505
5.36805,28391
5.37543,29941
5.3828,27898
5.39018,27326
5.39755,25168
5.40493,21781
5.41232,20412
5.41968,21084
5.42707,22907
5.43443,25407
5.44182,25433
5.4492,24980
5.45657,25107
5.46395,24223
5.47132,24334
5.4787,34259
5.48607,52322
5.49345,72996
5.50083,56273
5.5082,32187
5.51558,31628
5.52295,32758
5.53033,26235
5.53772,23760
5.54508,23481
5.55247,22498
5.55983,24886
5.56722,26866
5.57458,27310
5.58197,36008
5.58935,49363
5.59672,39216
5.6041,26971
5.61147,27433
5.61885,28410
5.62623,27612
5.6336,24150
5.64098,23732
5.64835,25027
5.65573,24631
5.6631,24800
5.67048,22362
5.67787,21605
5.68523,23099
5.69262,24796
5.69998,23455
5.70737,21927
5.71473,21517
5.72212,21243
5.7295,26603
5.73687,36953
5.74425,42915
5.75162,38174
5.759,27972
5.76638,24902
5.77375,23570
5.78113,21508
5.7885,24477
5.79588,40804
5.80325,57354
5.81063,63666
5.81802,78762
5.82538,59016
5.83277,34900
5.84013,46608
5.84752,81527
5.8549,72822
5.86227,48949
5.86965,36525
5.87702,34908
5.8844,32878
5.89177,30892
5.89915,27479
5.90653,23248
5.9139,29146
5.92128,51729
5.92865,82560
5.93603,72177
5.94342,45831
5.95078,27424
5.95817,22778
5.96553,25302
5.97292,29742
5.98028,34069
5.98767,41922
5.99505,40075
6.00242,31947
6.0098,31238
6.01717,32461
6.02455,33077
6.03193,29730
6.0393,28654
6.04668,27195
6.05405,25372
6.06143,24808
6.0688,27034
6.07618,32825
6.08357,32723
6.09093,32879
6.09832,47762
6.10568,56969
6.11307,52569
6.12045,40661
6.12782,40337
6.1352,45912
6.14257,43491
6.14995,40718
6.15732,36717
6.1647,30337
6.17208,29583
6.17945,32583
6.18683,30751
6.1942,28513
6.20158,28687
6.20897,24358
6.21633,27244
6.22372,48448
6.23108,95997
6.23847,119113
6.24583,225384
6.25322,459599
6.2606,345260
6.26797,96831
6.27535,37521
6.28272,31921
6.2901,28009
6.29747,29327
6.30485,34612
6.31223,32104
6.3196,27143
6.32698,26366
6.33435,24447
6.34173,23323
6.34912,27061
6.35648,32011
6.36387,32276
6.37123,28677
6.37862,26652
6.38598,32114
6.39337,36221
6.40075,36777
6.40812,47925
6.4155,53962
6.42287,46432
6.43025,37904
6.43763,38759
6.445,39747
6.45238,39970
6.45975,37168
6.46713,35567
6.4745,43211
6.48188,49153
6.48927,41090
6.49663,43275
6.50402,99400
6.51138,197440
6.51877,150426
6.52615,56352
6.53352,31596
6.5409,34735
6.54827,42963
6.55565,42419
6.56302,58725
6.5704,100484
6.57778,99546
6.58515,69832
6.59253,50374
6.5999,41919
6.60728,34034
6.61467,30251
6.62203,33880
6.62942,38814
6.63678,47191
6.64417,61107
6.65153,70997
6.65892,74937
6.6663,62105
6.67367,43027
6.68105,50680
6.68842,78550
6.6958,99134
6.70318,72085
6.71055,46244
6.71793,38575
6.7253,36783
6.73268,41777
6.74005,43008
6.74743,34947
6.75482,31190
6.76218,29607
6.76957,29341
6.77693,29873
6.78432,29599
6.7917,27260
6.79907,30720
6.80645,42810
6.81382,52636
6.8212,58457
6.82857,49727
6.83595,47518
6.84333,42009
6.8507,47097
6.85808,57998
6.86545,56644
6.87283,61029
6.8802,71339
6.88758,74987
6.89497,89486
6.90233,60928
6.90972,34591
6.91708,47940
6.92447,85616
6.93185,103099
6.93922,69885
6.9466,58805
6.95397,91010
6.96135,129834
6.96872,133018
6.9761,71872
6.98348,39386
6.99085,39967
6.99823,45994
7.0056,43754
7.01298,37241
7.02037,33094
7.02773,40189
7.03512,77299
7.04248,105802
7.04987,78182
7.05723,61019
7.06462,51999
7.072,38520
7.07937,34425
7.08675,32148
7.09412,30520
7.1015,29299
7.10888,29725
7.11625,32870
7.12363,33286
7.131,30395
7.13838,29569
7.14575,35699
7.15313,42567
7.16052,55100
7.16788,67842
7.17527,61821
7.18263,69208
7.19002,71862
7.1974,53244
7.20477,43641
7.21215,38543
7.21952,42350
7.2269,62963
7.23427,59096
7.24165,40312
7.24903,48033
7.2564,71473
7.26378,67432
7.27115,52844
7.27853,44600
7.28592,44613
7.29328,53872
7.30067,51463
7.30803,39104
7.31542,31744
7.32278,31472
7.33017,37863
7.33755,78381
7.34492,288489
7.3523,488722
7.35967,264844
7.36705,80636
7.37443,45921
7.3818,38919
7.38918,40973
7.39655,42980
7.40393,42184
7.4113,39546
7.41868,42921
7.42607,43862
7.43343,38629
7.44082,41295
7.44818,52330
7.45557,52440
7.46293,42451
7.47032,38225
7.4777,39685
7.48507,46712
7.49245,55778
7.49982,52219
7.5072,42895
7.51458,45055
7.52195,48833
7.52933,48659
7.5367,56082
7.54408,50598
7.55145,36318
7.55883,40915
7.56622,50016
7.57358,48942
7.58097,44029
7.58833,51740
7.59572,59508
7.6031,47514
7.61047,31851
7.61785,26960
7.62522,30758
7.6326,51605
7.63997,95410
7.64735,90051
7.65473,47461
7.6621,32003
7.66948,29433
7.67685,26748
7.68423,25719
7.69162,27743
7.69898,32394
7.70637,34244
7.71373,36339
7.72112,34181
7.72848,34732
7.73587,34797
7.74325,41768
7.75062,42807
7.758,35277
7.76537,37997
7.77275,44399
7.78013,37703
7.7875,35381
7.79488,42343
7.80225,47432
7.80963,37150
7.817,31269
7.82438,29860
7.83177,29022
7.83913,30239
7.84652,30776
7.85388,35347
7.86127,38012
7.86865,40580
7.87602,43139
7.8834,36445
7.89077,32922
7.89815,35072
7.90552,33953
7.9129,35201
7.92028,39094
7.92765,37150
7.93503,35447
7.9424,29177
7.94978,30057
7.95717,35502
7.96453,38258
7.97192,46479
7.97928,52627
7.98667,55705
7.99403,52201
8.00142,39287
8.0088,45399
8.01617,50784
8.02355,35481
8.03092,25563
8.0383,28553
8.04567,33575
8.05305,30803
8.06043,25328
8.0678,25346
8.07518,26773
8.08255,31425
8.08993,35693
8.09732,37703
8.10468,39596
8.11207,39991
8.11943,35297
8.12682,28880
8.13418,28490
8.14157,25435
8.14895,22618
8.15632,22622
8.1637,22404
8.17107,22542
8.17845,23325
8.18583,24886
8.1932,26653
8.20058,26644
8.20795,22939
8.21533,21490
8.2227,20825
8.23008,21020
8.23747,21615
8.24483,21605
8.25222,22756
8.25958,22584
8.26697,22626
8.27435,23314
8.28172,25054
8.2891,25006
8.29647,23837
8.30385,22683
8.31122,21658
8.3186,21586
8.32598,21481
8.33335,23667
8.34073,25256
8.3481,29517
8.35548,30225
8.36287,28857
8.37023,34879
8.37762,44111
8.38498,37253
8.39237,25922
8.39973,22395
8.40712,20686
8.4145,22552
8.42187,23487
8.42925,24149
8.43662,23549
8.444,22222
8.45138,22244
8.45875,24095
8.46613,24957
8.4735,20936
8.48088,19380
8.48825,20630
8.49563,20835
8.50302,21018
8.51038,21582
8.51777,21734
8.52513,20374
8.53252,19444
8.5399,19713
8.54727,21086
8.55465,21029
8.56202,20289
8.5694,19840
8.57677,20167
8.58415,19750
8.59153,20053
8.5989,20299
8.60628,20224
8.61365,19549
8.62103,19633
8.6284,19331
8.63578,19462
8.64317,19515
8.65053,21083
8.65792,20970
8.66528,20050
8.67267,20020
8.68005,19775
8.68742,19664
8.6948,19780
8.70217,20332
8.70955,19465
8.71692,19791
8.7243,19316
8.73168,19839
8.73905,19647
8.74643,19678
8.7538,19352
8.76118,19777
8.76857,19703
8.77593,18947
8.78332,19830
8.79068,19457
8.79807,19131
8.80543,19178
8.81282,19649
8.8202,19845
8.82757,19737
8.83495,19911
8.84232,19853
8.8497,19424
8.85708,19463
8.86445,19214
8.87183,19594
8.8792,19631
8.88658,19736
8.89395,20099
8.90133,20193
8.90872,19917
8.91608,19971
8.92347,19518
8.93083,21580
8.93822,22864
8.9456,23184
8.95297,23082
8.96035,22962
8.96772,22970
8.9751,22868
8.98247,22759
8.98985,24147
8.99723,24424
9.0046,24227
9.01198,24219
9.01935,23057
9.02673,23363
9.03412,23324
9.04148,22724
9.04887,23184
9.05623,23723
9.06362,23186
9.07098,23156
9.07837,23214
9.08575,22899
9.09312,23351
9.1005,22801
9.10787,23211
9.11525,22903
9.12263,22773
9.13,23170
9.13738,22597
9.14475,24033
9.15213,22756
9.1595,22206
9.16688,22508
9.17427,22746
9.18163,22605
9.18902,22222
9.19638,22354
9.20377,22642
9.21113,22656
9.21852,22342
9.2259,22351
9.23327,22343
9.24065,22305
9.24802,22449
9.2554,22148
9.26278,22612
9.27015,22562
9.27753,22658
9.2849,22595
9.29228,23114
9.29965,22547
9.30703,22318
9.31442,22665
9.32178,22757
9.32917,23258
9.33653,23936
9.34392,24067
9.3513,22573
9.35867,22781
9.36605,22176
9.37342,21807
9.3808,22339
9.38817,22666
9.39555,21930
9.40293,22320
9.4103,23116
9.41768,22496
9.42505,22385
9.43243,22745
9.43982,23125
9.44718,23029
9.45457,22402
9.46193,22299
9.46932,22482
9.47668,22842
9.48407,22645
9.49145,22050
9.49882,22279
9.5062,22411
9.51357,22947
9.52095,22429
9.52833,22271
9.5357,22524
9.54308,22436
9.55045,22114
9.55783,21252
9.5652,20911
9.57258,20121
9.57997,20210
9.58733,19694
9.59472,20275
9.60208,20553
9.60947,20663
9.61685,20832
9.62422,21107
9.6316,20463
9.63897,20650
9.64635,21454
9.65372,20696
9.6611,21014
9.66848,20332
9.67585,20760
9.68323,19842
9.6906,20351
9.69798,20584
9.70537,20674
9.71273,20222
9.72012,21180
9.72748,20101
9.73487,20253
9.74223,20456
9.74962,20441
9.757,20161
9.76437,19948
9.77175,20477
9.77912,20680
9.7865,20643
9.79387,20659
9.80125,22099
9.80863,21516
9.816,20336
9.82338,21342
9.83075,21207
9.83813,20712
9.84552,20297
9.85288,19948
9.86027,20420
9.86763,20344
9.87502,20686
9.88238,20837
9.88977,20628
9.89715,20884
9.90452,20480
9.9119,20829
9.91927,21173
9.92665,21637
9.93403,20803
9.9414,20526
9.94878,21241
9.95615,20873
9.96353,20653
9.9709,20562
9.97828,20952
9.98567,22306
9.99303,22539
10.0004,21767
10.0078,21496
10.0152,21163
10.0226,21150
10.0299,21403
10.0373,22122
10.0447,21580
10.0521,21141
10.0594,21134
10.0668,20991
10.0742,20815
10.0816,20689
10.0889,20822
10.0963,20959
10.1037,20950
10.1111,20346
10.1184,21363
10.1258,21153
10.1332,21257
10.1406,20823
10.1479,20225
10.1553,21332
10.1627,20886
10.1701,20636
10.1775,20976
10.1848,21261
10.1922,21424
10.1996,22391
10.207,21610
10.2143,21631
10.2217,20888
10.2291,21309
10.2365,22723
10.2438,24158
10.2512,23507
10.2586,22290
10.266,20975
10.2733,21794
10.2807,21494
10.2881,21560
10.2955,21070
10.3029,20932
10.3102,21822
10.3176,22400
10.325,22154
10.3324,21772
10.3397,22177
10.3471,21617
10.3545,21888
10.3619,21709
10.3692,21082
10.3766,22196
10.384,22312
10.3914,22684
10.3987,21392
10.4061,21658
10.4135,21975
10.4209,21766
10.4283,20881
10.4356,21479
10.443,21674
10.4504,21261
10.4578,21345
10.4651,21987
10.4725,21424
10.4799,22120
10.4873,22746
10.4946,22680
10.502,22705
10.5094,21847
10.5168,21349
10.5241,22239
10.5315,21309
10.5389,22192
10.5463,22133
10.5536,22190
10.561,22084
10.5684,21656
10.5758,23109
10.5832,21833
10.5905,21517
10.5979,21607
10.6053,22703
10.6127,22176
10.62,22327
10.6274,22575
10.6348,22229
10.6422,22279
10.6495,22522
10.6569,23664
10.6643,24101
10.6717,24889
10.679,24303
10.6864,24132
10.6938,23492
10.7012,24533
10.7086,24197
10.7159,24064
10.7233,23467
10.7307,23262
10.7381,22753
10.7454,23861
10.7528,24449
10.7602,23078
10.7676,23063
10.7749,23837
10.7823,24731
10.7897,25110
10.7971,24704
10.8044,23491
10.8118,22905
10.8192,23429
10.8266,23024
10.834,23430
10.8413,23312
10.8487,24410
10.8561,25427
10.8635,24802
10.8708,24221
10.8782,23468
10.8856,23320
10.893,23063
10.9003,23761
10.9077,24017
10.9151,23886
10.9225,23665
10.9298,23878
10.9372,24030
10.9446,23482
10.952,24512
10.9594,27148
10.9667,31311
10.9741,32414
10.9815,33449
10.9889,32236
10.9962,32092
11.0036,32515
11.011,32615
11.0184,32761
11.0257,31875
11.0331,33170
11.0405,33249
11.0479,33758
11.0552,32599
11.0626,31660
11.07,27866
11.0774,26322
11.0847,27980
11.0921,31232
11.0995,33323
11.1069,29607
11.1143,27669
11.1216,27407
11.129,25532
11.1364,25635
11.1438,25507
11.1511,26650
11.1585,26729
11.1659,27482
11.1733,28359
11.1806,27023
11.188,26147
11.1954,26129
11.2028,26395
11.2101,26295
11.2175,26967
11.2249,26810
11.2323,27798
11.2397,25784
11.247,25736
11.2544,26054
11.2618,24979
11.2692,25491
11.2765,25421
11.2839,26538
11.2913,26472
11.2987,26059
11.306,26165
11.3134,25129
11.3208,26123
11.3282,26259
11.3355,26354
11.3429,26395
11.3503,25921
11.3577,26385
11.3651,25997
11.3724,26554
11.3798,26445
11.3872,26664
11.3946,26565
11.4019,25398
11.4093,25957
11.4167,25414
11.4241,25491
11.4314,25728
11.4388,25993
11.4462,25747
11.4536,25694
11.4609,26627
11.4683,29137
11.4757,32354
11.4831,32918
11.4904,32592
11.4978,32313
11.5052,30177
11.5126,29490
11.52,32204
11.5273,32585
11.5347,31845
11.5421,30164
11.5495,29904
11.5568,30123
11.5642,30438
11.5716,34267
11.579,34102
11.5863,31414
11.5937,28844
11.6011,29568
11.6085,32431
11.6158,34731
11.6232,33106
11.6306,30681
11.638,30960
11.6454,30523
11.6527,29740
11.6601,29841
11.6675,31788
11.6749,35005
11.6822,34267
11.6896,30102
11.697,29683
11.7044,29637
11.7117,30121
11.7191,30739
11.7265,30918
11.7339,30745
11.7412,29750
11.7486,30496
11.756,29907
11.7634,29553
11.7708,28798
11.7781,29068
11.7855,29743
11.7929,29571
11.8003,29469
11.8076,29885
11.815,29818
11.8224,30952
11.8298,31778
11.8371,31150
11.8445,32304
11.8519,32589
11.8593,31698
11.8666,31473
11.874,32024
11.8814,33822
11.8888,36584
11.8961,44372
11.9035,51457
11.9109,44056
11.9183,37405
11.9257,35246
11.933,33900
11.9404,34733
11.9478,36208
11.9552,40472
11.9625,42413
11.9699,41570
11.9773,40813
11.9847,40059
11.992,38142
11.9994,37351
12.0068,37385
12.0142,37469
12.0215,39565
12.0289,38316
12.0363,35365
12.0437,34132
12.0511,35487
12.0584,35933
12.0658,35505
12.0732,37814
12.0806,39105
12.0879,37227
12.0953,34845
12.1027,35125
12.1101,36738
12.1174,35516
12.1248,35617
12.1322,36114
12.1396,36229
12.1469,34244
12.1543,33976
12.1617,35639
12.1691,36967
12.1765,37849
12.1838,36916
12.1912,35723
12.1986,34463
12.206,34081
12.2133,33920
12.2207,34327
12.2281,35065
12.2355,36170
12.2428,40904
12.2502,49521
12.2576,52073
12.265,48496
12.2723,49415
12.2797,49576
12.2871,45120
12.2945,44580
12.3018,47186
12.3092,47396
12.3166,42070
12.324,39789
12.3314,39815
12.3387,40762
12.3461,43770
12.3535,46213
12.3609,44640
12.3682,40402
12.3756,40266
12.383,43446
12.3904,54032
12.3977,59460
12.4051,55236
12.4125,49872
12.4199,43601
12.4272,42010
12.4346,41546
12.442,43570
12.4494,49161
12.4568,52795
12.4641,46682
12.4715,41987
12.4789,40546
12.4863,41006
12.4936,41792
12.501,40480
12.5084,39712
12.5158,39668
12.5231,39118
12.5305,39134
12.5379,39930
12.5453,39791
12.5526,42192
12.56,41678
12.5674,41889
12.5748,42574
12.5822,44409
12.5895,43571
12.5969,43630
12.6043,43325
12.6117,41986
12.619,40607
12.6264,40835
12.6338,41067
12.6412,45072
12.6485,48683
12.6559,52855
12.6633,69103
12.6707,75220
12.678,57167
12.6854,47369
12.6928,45169
12.7002,52200
12.7076,70174
12.7149,81928
12.7223,72900
12.7297,62285
12.7371,58931
12.7444,57279
12.7518,53258
12.7592,51232
12.7666,53361
12.7739,55933
12.7813,54015
12.7887,49965
12.7961,48576
12.8034,46356
12.8108,47125
12.8182,47251
12.8256,47203
12.8329,48631
12.8403,50363
12.8477,49348
12.8551,47888
12.8625,47423
12.8698,45377
12.8772,47348
12.8846,48754
12.892,48247
12.8993,45501
12.9067,44177
12.9141,46311
12.9215,47843
12.9288,52199
12.9362,49951
12.9436,46718
12.951,44646
12.9583,44388
12.9657,44916
12.9731,46627
12.9805,55793
12.9879,68209
12.9952,71660
13.0026,65067
13.01,60338
13.0174,58897
13.0247,53611
13.0321,49898
13.0395,53440
13.0469,59308
13.0542,61556
13.0616,57262
13.069,51854
13.0764,49917
13.0837,56966
13.0911,71569
13.0985,74832
13.1059,62299
13.1133,54891
13.1206,55764
13.128,61770
13.1354,64892
13.1428,57425
13.1501,53100
13.1575,52722
13.1649,52999
13.1723,53405
13.1796,53639
13.187,59371
13.1944,66945
13.2018,62568
13.2091,55296
13.2165,51816
13.2239,56317
13.2313,66493
13.2386,69186
13.246,61237
13.2534,59594
13.2608,61194
13.2682,67941
13.2755,66019
13.2829,60967
13.2903,57398
13.2977,55233
13.305,55871
13.3124,59448
13.3198,60240
13.3272,57938
13.3345,56878
13.3419,57443
13.3493,59427
13.3567,62250
13.364,60826
13.3714,61272
13.3788,63434
13.3862,75597
13.3936,89963
13.4009,85093
13.4083,70157
13.4157,64228
13.4231,71612
13.4304,81295
13.4378,78879
13.4452,72019
13.4526,77065
13.4599,83017
13.4673,86605
13.4747,85521
13.4821,84417
13.4894,87112
13.4968,84143
13.5042,74766
13.5116,69684
13.519,69148
13.5263,65089
13.5337,63474
13.5411,67017
13.5485,70801
13.5558,72569
13.5632,73003
13.5706,66764
13.578,68026
13.5853,70985
13.5927,72219
13.6001,73451
13.6075,72633
13.6148,68503
13.6222,65377
13.6296,68187
13.637,73738
13.6443,75624
13.6517,69632
13.6591,65629
13.6665,66463
13.6739,67946
13.6812,77890
13.6886,95487
13.696,101242
13.7034,95746
13.7107,89755
13.7181,90329
13.7255,92774
13.7329,83781
13.7402,76224
13.7476,81875
13.755,89290
13.7624,86478
13.7697,81670
13.7771,79314
13.7845,76049
13.7919,79142
13.7993,88266
13.8066,88087
13.814,82561
13.8214,79128
13.8288,81930
13.8361,85168
13.8435,81201
13.8509,78024
13.8583,80038
13.8656,78112
13.873,77266
13.8804,75927
13.8878,78862
13.8951,95874
13.9025,96561
13.9099,84492
13.9173,81398
13.9247,82283
13.932,83034
13.9394,81839
13.9468,87376
13.9542,93788
13.9615,98608
13.9689,96695
13.9763,93313
13.9837,86407
13.991,89180
13.9984,90501
14.0058,92588
14.0132,93662
14.0205,90250
14.0279,94162
14.0353,94296
14.0427,96005
14.05,97825
14.0574,96438
14.0648,94163
14.0722,99595
14.0796,111486
14.0869,123069
14.0943,111627
14.1017,104689
14.1091,117072
14.1164,125871
14.1238,110816
14.1312,102577
14.1386,108202
14.1459,113250
14.1533,117028
14.1607,118729
14.1681,116647
14.1754,115463
14.1828,111723
14.1902,109144
14.1976,107708
14.205,106587
14.2123,104659
14.2197,104290
14.2271,105059
14.2345,103396
14.2418,95946
14.2492,89655
14.2566,92585
14.264,95698
14.2713,95911
14.2787,93061
14.2861,93088
14.2935,91209
14.3008,93339
14.3082,99898
14.3156,105601
14.323,98819
14.3304,97235
14.3377,109226
14.3451,124614
14.3525,133283
14.3599,128678
14.3672,124952
14.3746,119215
14.382,119844
14.3894,117521
14.3967,109451
14.4041,107313
14.4115,115909
14.4189,120023
14.4262,112744
14.4336,106005
14.441,104363
14.4484,110334
14.4558,124157
14.4631,126832
14.4705,117645
14.4779,109651
14.4853,113653
14.4926,113696
14.5,109480
14.5074,109818
14.5148,112430
14.5221,108048
14.5295,105297
14.5369,112218
14.5443,120381
14.5516,118766
14.559,116463
14.5664,117932
14.5738,123705
14.5811,125816
14.5885,126734
14.5959,126496
14.6033,126159
14.6107,126361
14.618,126313
14.6254,129095
14.6328,134318
14.6402,133831
14.6475,135833
14.6549,129399
14.6623,127681
14.6697,130831
14.677,126334
14.6844,128008
14.6918,133277
14.6992,138550
14.7065,140907
14.7139,142931
14.7213,150728
14.7287,158941
14.7361,148037
14.7434,134765
14.7508,134688
14.7582,139521
14.7656,150660
14.7729,156171
14.7803,152215
14.7877,144618
14.7951,141262
14.8024,137565
14.8098,138184
14.8172,144009
14.8246,137012
14.8319,134114
14.8393,129875
14.8467,125456
14.8541,124182
14.8615,124544
14.8688,119780
14.8762,118107
14.8836,121714
14.891,120438
14.8983,118233
14.9057,124764
14.9131,128735
14.9205,134616
14.9278,147140
14.9352,157345
14.9426,153563
14.95,148502
14.9573,147499
14.9647,150235
14.9721,150509
14.9795,140546
14.9868,138482
14.9942,141965
15.0016,150036
15.009,166988
15.0164,165033
15.0237,149417
15.0311,152647
15.0385,153848
15.0459,148325
15.0532,141103
15.0606,139940
15.068,139279
15.0754,136641
15.0827,136265
15.0901,133999
15.0975,130000
15.1049,142991
15.1122,155902
15.1196,156895
15.127,152491
15.1344,151038
15.1418,149769
15.1491,151020
15.1565,152394
15.1639,154920
15.1713,151599
15.1786,162148
15.186,164657
15.1934,159505
15.2008,155279
15.2081,153567
15.2155,153239
15.2229,151822
15.2303,150643
15.2376,156461
15.245,160489
15.2524,167142
15.2598,184048
15.2672,175976
15.2745,167934
15.2819,164682
15.2893,165824
15.2967,165774
15.304,172577
15.3114,177125
15.3188,167302
15.3262,169143
15.3335,170212
15.3409,165349
15.3483,162412
15.3557,158285
15.363,157964
15.3704,154170
15.3778,154840
15.3852,159035
15.3925,159823
15.3999,149494
15.4073,147747
15.4147,148533
15.4221,150142
15.4294,155308
15.4368,160419
15.4442,165216
15.4516,169031
15.4589,166982
15.4663,169266
15.4737,171658
15.4811,170275
15.4884,171181
15.4958,165208
15.5032,157398
15.5106,159082
15.5179,165125
15.5253,160822
15.5327,157208
15.5401,159695
15.5475,169012
15.5548,165499
15.5622,161138
15.5696,164295
15.577,162254
15.5843,156659
15.5917,164388
15.5991,164505
15.6065,165540
15.6138,173586
15.6212,179526
15.6286,177798
15.636,177650
15.6433,177071
15.6507,174027
15.6581,176225
15.6655,175832
15.6729,180664
15.6802,182413
15.6876,179955
15.695,175115
15.7024,170070
15.7097,171513
15.7171,178169
15.7245,178469
15.7319,174319
15.7392,180348
15.7466,195747
15.754,187012
15.7614,181867
15.7687,180152
15.7761,179181
15.7835,186075
15.7909,197083
15.7982,198871
15.8056,194964
15.813,189042
15.8204,183160
15.8278,178405
15.8351,179005
15.8425,177257
15.8499,171605
15.8573,173040
15.8646,174574
15.872,174105
15.8794,172742
15.8868,172140
15.8941,174339
15.9015,174764
15.9089,184263
15.9163,191858
15.9236,193235
15.931,191309
15.9384,190083
15.9458,188399
15.9532,191467
15.9605,191715
15.9679,189443
15.9753,189582
15.9827,186641
15.99,187162
15.9974,186434
16.0048,187873
16.0121,190708
16.0195,189879
16.0269,189622
16.0343,190258
16.0417,192293
16.049,190733
16.0564,191777
16.0638,193457
16.0712,197265
16.0786,197169
16.0859,196471
16.0933,198924
16.1007,201831
16.108,199051
16.1154,197553
16.1228,201070
16.1302,198840
16.1376,195702
16.1449,190748
16.1523,187896
16.1597,193548
16.1671,197998
16.1744,193935
16.1818,195284
16.1892,201825
16.1966,202862
16.2039,198449
16.2113,194946
16.2187,193290
16.2261,192292
16.2335,203646
16.2408,207852
16.2482,200356
16.2556,194803
16.263,192103
16.2703,189761
16.2777,187867
16.2851,189667
16.2925,184873
16.2998,183871
16.3072,181534
16.3146,182241
16.322,181233
16.3293,184793
16.3367,183803
16.3441,185072
16.3515,188193
16.3589,188801
16.3662,187933
16.3736,187561
16.381,185568
16.3883,184655
16.3957,185304
16.4031,185881
16.4105,186421
16.4179,180939
16.4252,183341
16.4326,181810
16.44,180261
16.4474,178019
16.4547,180030
16.4621,177945
16.4695,180806
16.4769,178917
16.4842,179277
16.4916,178518
16.499,180315
16.5064,180804
16.5138,179054
16.5211,180748
16.5285,180303
16.5359,179882
16.5433,179897
16.5506,180542
16.558,177211
16.5654,179578
16.5728,177850
16.5801,178210
16.5875,177026
16.5949,175764
16.6023,174019
16.6096,172845
16.617,171698
16.6244,172452
16.6318,171787
16.6392,172750
16.6465,173985
16.6539,173997
16.6613,173319
16.6687,174765
16.676,173099
16.6834,172209
16.6908,171527
16.6982,175027
16.7055,172195
16.7129,172302
16.7203,168829
16.7277,169643
16.735,167516
16.7424,170921
16.7498,172194
16.7572,172879
16.7646,168695
16.7719,167758
16.7793,168489
16.7867,167345
16.794,168835
16.8014,166532
16.8088,167137
16.8162,168847
16.8236,168078
16.8309,167695
16.8383,167778
16.8457,166601
16.8531,166254
16.8604,167544
16.8678,167166
16.8752,170475
16.8826,167234
16.8899,165257
16.8973,165865
16.9047,166048
16.9121,166273
16.9195,164567
16.9268,165281
16.9342,166165
16.9416,165515
16.949,164151
16.9563,166573
16.9637,163406
16.9711,166102
16.9785,164439
16.9858,162803
16.9932,164607
17.0006,163511
17.008,164048
17.0154,161987
17.0227,164772
17.0301,163756
17.0375,163647
17.0449,162264
17.0522,162040
17.0596,165653
17.067,164505
17.0743,163174
17.0817,162965
17.0891,163364
17.0965,163991
17.1039,163665
17.1112,160630
17.1186,161974
17.126,163008
17.1334,163065
17.1407,163465
17.1481,161680
17.1555,163593
17.1629,162674
17.1702,161132
17.1776,162512
17.185,162372
17.1924,161492
17.1998,160033
17.2071,161509
17.2145,161227
17.2219,161264
17.2293,161522
17.2366,163254
17.244,161918
17.2514,160272
17.2588,161648
17.2661,162139
17.2735,160595
17.2809,159840
17.2883,161698
17.2956,159896
17.303,161544
17.3104,160624
17.3178,162858
17.3252,163569
17.3325,162633
17.3399,162242
17.3473,161575
17.3546,159810
17.362,160882
17.3694,161179
17.3768,160749
17.3842,161734
17.3915,162601
17.3989,161099
17.4063,160547
17.4137,160342
17.4211,160576
17.4284,161620
17.4358,161216
17.4432,162374
17.4506,158542
17.4579,161338
17.4653,164232
17.4727,162837
17.4801,163400
17.4874,165446
