D:\Data GC-MS-77B\2021\8 AUGUST\29-08-21\44378-21-5 YKK.D 29 Aug 21  10:17 am
Start of data points
1.29373,7203
1.30047,7163
1.30722,7319
1.31395,73924
1.3207,1555946
1.32743,4677440
1.33418,4411702
1.34093,4579962
1.34767,4664497
1.35442,4754973
1.36115,4842620
1.3679,4882375
1.37463,4901542
1.38138,5108514
1.38813,5376744
1.39487,5410485
1.40162,4860589
1.40835,3508084
1.4151,2424098
1.42183,1879448
1.42858,1572051
1.43532,1314440
1.44207,1075711
1.44882,845873
1.45555,637590
1.4623,471212
1.46903,344543
1.47578,250343
1.48252,179266
1.48927,131435
1.51013,153755
1.5175,112188
1.52488,86595
1.53225,68929
1.53963,56424
1.54702,47168
1.55438,41910
1.56177,38111
1.56913,35158
1.57652,33552
1.5839,30754
1.59127,30497
1.59865,29162
1.60602,29327
1.6134,30877
1.62077,30537
1.62815,30407
1.63553,30753
1.6429,29165
1.65028,28211
1.65765,27756
1.66503,27413
1.67242,27223
1.67978,25686
1.68717,26404
1.69453,26339
1.70192,26284
1.70928,26431
1.71667,26566
1.72405,25454
1.73142,25882
1.7388,25926
1.74617,25539
1.75355,25932
1.76093,25559
1.7683,25146
1.77568,25161
1.78305,24466
1.79043,25711
1.7978,24937
1.80518,24739
1.81257,24660
1.81993,24692
1.82732,25120
1.83468,24904
1.84207,24183
1.84945,24461
1.85682,24338
1.8642,24652
1.87157,24339
1.87895,25221
1.88632,24664
1.8937,24924
1.90108,24473
1.90845,24061
1.91583,24355
1.9232,24051
1.93058,23525
1.93795,23589
1.94533,24133
1.95272,24516
1.96008,23087
1.96747,24747
1.97483,24435
1.98222,24216
1.9896,24223
1.99697,24262
2.00435,24178
2.01172,24289
2.0191,23846
2.02647,23863
2.03385,23857
2.04123,24158
2.0486,24729
2.05598,23114
2.06335,23111
2.07073,23119
2.07812,23104
2.08548,23272
2.09287,23385
2.10023,23142
2.10762,22966
2.11498,23232
2.12237,22521
2.12975,23390
2.13712,23128
2.1445,23621
2.15187,24001
2.15925,23812
2.16663,23532
2.174,23789
2.18138,23029
2.18875,23033
2.19613,22853
2.2035,22862
2.21088,22289
2.21827,22504
2.22563,23199
2.23302,22826
2.24038,22845
2.24777,22540
2.25515,22865
2.26252,22453
2.2699,22666
2.27727,22990
2.28465,22901
2.29202,22410
2.2994,23188
2.30678,22824
2.31415,23112
2.32153,22640
2.3289,23193
2.33628,23042
2.34367,22112
2.35103,22017
2.35842,22580
2.36578,22921
2.37317,22113
2.38053,22026
2.38792,22790
2.3953,22827
2.40267,23133
2.41005,21908
2.41742,22207
2.4248,22299
2.43218,23174
2.43955,22361
2.44693,23371
2.4543,22407
2.46168,22482
2.46905,21929
2.47643,22062
2.48382,22622
2.49118,22415
2.49857,22153
2.50593,22414
2.51332,22127
2.52068,22165
2.52807,22703
2.53545,21556
2.54282,22115
2.5502,22269
2.55757,22402
2.56495,21872
2.57233,21503
2.5797,21980
2.58708,22343
2.59445,21838
2.60183,22659
2.6092,21965
2.61658,22515
2.62397,21684
2.63133,21801
2.63872,22166
2.64608,22008
2.65347,23120
2.66085,22173
2.66822,22592
2.6756,22421
2.68297,22378
2.69035,21952
2.69772,22830
2.7051,21661
2.71248,22421
2.71985,22327
2.72723,22198
2.7346,22720
2.74198,22218
2.74937,21974
2.75673,22644
2.76412,22242
2.77148,22201
2.77887,22562
2.78623,22678
2.79362,22065
2.801,22704
2.80837,21966
2.81575,22156
2.82312,21852
2.8305,21899
2.83788,22250
2.84525,22565
2.85263,22417
2.86,21689
2.86738,21614
2.87475,22261
2.88213,22446
2.88952,21910
2.89688,22741
2.90427,22049
2.91163,22511
2.91902,21863
2.9264,22289
2.93377,21390
2.94115,22486
2.94852,21708
2.9559,21871
2.96327,22215
2.97065,22689
2.97803,21797
2.9854,22402
2.99278,21774
3.00015,22153
3.00753,22215
3.01492,22076
3.02228,22478
3.02967,22559
3.03703,22625
3.04442,21939
3.05178,21791
3.05917,22360
3.06655,22156
3.07392,22236
3.0813,21755
3.08867,22059
3.09605,22125
3.10342,21694
3.1108,21902
3.11818,22114
3.12555,21737
3.13293,21756
3.1403,21791
3.14768,22213
3.15507,22289
3.16243,22651
3.16982,22071
3.17718,21963
3.18457,21838
3.19193,22335
3.19932,21822
3.2067,21553
3.21407,21376
3.22145,22181
3.22882,22103
3.2362,22288
3.24358,21919
3.25095,22075
3.25833,22171
3.2657,21577
3.27308,21854
3.28045,22124
3.28783,21648
3.29522,21757
3.30258,22134
3.30997,21968
3.31733,22098
3.32472,21797
3.3321,22106
3.33947,22214
3.34685,21932
3.35422,21640
3.3616,22338
3.36897,22287
3.37635,22071
3.38373,21785
3.3911,21428
3.39848,21880
3.40585,21954
3.41323,21930
3.42062,21726
3.42798,21448
3.43537,21832
3.44273,22061
3.45012,21363
3.45748,21987
3.46487,22221
3.47225,22450
3.47962,22197
3.487,22043
3.49437,21965
3.50175,21972
3.50913,22330
3.5165,22270
3.52388,22072
3.53125,22671
3.53863,21804
3.546,21942
3.55338,22105
3.56077,22730
3.56813,22165
3.57552,21976
3.58288,22585
3.59027,21936
3.59765,22042
3.60502,22569
3.6124,22047
3.61977,21537
3.62715,22022
3.63452,21942
3.6419,22063
3.64928,21647
3.65665,21981
3.66403,21604
3.6714,22237
3.67878,21964
3.68615,21655
3.69353,22253
3.70092,21220
3.70828,22372
3.71567,22161
3.72303,21724
3.73042,21335
3.7378,21620
3.74517,21436
3.75255,22007
3.75992,22297
3.7673,21615
3.77467,21913
3.78205,21816
3.78943,21826
3.7968,21823
3.80418,21648
3.81155,21935
3.81893,22294
3.82632,22116
3.83368,21942
3.84107,21996
3.84843,21995
3.85582,21971
3.86318,22283
3.87057,21330
3.87795,21919
3.88532,22284
3.8927,22389
3.90007,22470
3.90745,22307
3.91483,21838
3.9222,21836
3.92958,22169
3.93695,21803
3.94433,22393
3.9517,21645
3.95908,22169
3.96647,21715
3.97383,22789
3.98122,22189
3.98858,21852
3.99597,22016
4.00335,22475
4.01072,21554
4.0181,22328
4.02547,22557
4.03285,21897
4.04022,22073
4.0476,22452
4.05498,21922
4.06235,22334
4.06973,21922
4.0771,22675
4.08448,22366
4.09187,22029
4.09923,22220
4.10662,22248
4.11398,22486
4.12137,22284
4.12873,21843
4.13612,22175
4.1435,21888
4.15087,22494
4.15825,22660
4.16562,23676
4.173,22781
4.18038,22385
4.18775,23034
4.19513,23138
4.2025,23152
4.20988,23063
4.21725,23621
4.22463,23243
4.23202,23265
4.23938,23360
4.24677,23150
4.25413,23383
4.26152,23457
4.26888,22865
4.27627,22502
4.28365,23150
4.29102,23112
4.2984,23065
4.30577,22861
4.31315,23242
4.32053,22956
4.3279,23542
4.33528,23412
4.34265,22875
4.35003,22351
4.3574,22418
4.36478,23342
4.37217,23495
4.37953,22947
4.38692,23610
4.39428,23652
4.40167,24146
4.40905,23613
4.41642,23717
4.4238,22812
4.43117,23459
4.43855,22699
4.44592,22899
4.4533,22792
4.46068,22518
4.46805,22849
4.47543,22539
4.4828,22684
4.49018,22568
4.49757,22480
4.50493,22063
4.51232,22525
4.51968,22346
4.52707,22284
4.53443,22995
4.54182,22507
4.5492,21875
4.55657,22146
4.56395,22999
4.57132,22103
4.5787,21564
4.58608,21624
4.59345,22586
4.60083,21390
4.6082,22060
4.61558,21789
4.62295,22231
4.63033,21550
4.63772,21319
4.64508,21369
4.65247,21786
4.65983,22322
4.66722,22461
4.6746,21678
4.68197,21894
4.68935,21832
4.69672,21100
4.7041,21898
4.71147,22115
4.71885,21962
4.72623,21784
4.7336,21230
4.74098,21532
4.74835,21746
4.75573,21526
4.76312,21832
4.77048,21487
4.77787,21283
4.78523,21130
4.79262,21867
4.79998,21477
4.80737,21209
4.81475,21341
4.82212,21731
4.8295,21704
4.83687,20891
4.84425,21979
4.85162,21440
4.859,21061
4.86638,21649
4.87375,21208
4.88113,21105
4.8885,21280
4.89588,20821
4.90327,20910
4.91063,21923
4.91802,21448
4.92538,21869
4.93277,21648
4.94013,21521
4.94752,22052
4.9549,21407
4.96227,20481
4.96965,21372
4.97702,21057
4.9844,21195
4.99178,21866
4.99915,21718
5.00653,21033
5.0139,20610
5.02128,21568
5.02865,22329
5.03603,21569
5.04342,21467
5.05078,21291
5.05817,21849
5.06553,21072
5.07292,20850
5.0803,20767
5.08767,20902
5.09505,20945
5.10242,21962
5.1098,21312
5.11717,21315
5.12455,21745
5.13193,21852
5.1393,21193
5.14668,21405
5.15405,20854
5.16143,20877
5.16882,21169
5.17618,21085
5.18357,20610
5.19093,20968
5.19832,21373
5.20568,21566
5.21307,21434
5.22045,21035
5.22782,21476
5.2352,21709
5.24257,20544
5.24995,20605
5.25733,21510
5.2647,21468
5.27208,21935
5.27945,22261
5.28683,21372
5.2942,21496
5.30158,21079
5.30897,20780
5.31633,20628
5.32372,20644
5.33108,20827
5.33847,20839
5.34585,20848
5.35322,21179
5.3606,21773
5.36797,21231
5.37535,21059
5.38272,21248
5.3901,21402
5.39748,21085
5.40485,21257
5.41223,20622
5.4196,21797
5.42698,21006
5.43435,20268
5.44173,21150
5.44912,20561
5.45648,21567
5.46387,20907
5.47123,20532
5.47862,21052
5.486,21479
5.49337,21334
5.50075,21231
5.50812,20604
5.5155,21970
5.52287,21447
5.53025,20902
5.53763,20965
5.545,21104
5.55238,21661
5.55975,21705
5.56713,21395
5.57452,21350
5.58188,21536
5.58927,21067
5.59663,20740
5.60402,21135
5.61138,20856
5.61877,20776
5.62615,21010
5.63352,21594
5.6409,20958
5.64827,21106
5.65565,21795
5.66303,21446
5.6704,21140
5.67778,21362
5.68515,21419
5.69253,21075
5.6999,20708
5.70728,20953
5.71467,20316
5.72203,21282
5.72942,20978
5.73678,21761
5.74417,21097
5.75155,21183
5.75892,21392
5.7663,21265
5.77367,21093
5.78105,20740
5.78842,21791
5.7958,20706
5.80318,21876
5.81055,21006
5.81793,20897
5.8253,21033
5.83268,20537
5.84007,21196
5.84743,21173
5.85482,21206
5.86218,20855
5.86957,21028
5.87693,21047
5.88432,20782
5.8917,21113
5.89907,21080
5.90645,21036
5.91382,21133
5.9212,21016
5.92858,20717
5.93595,21135
5.94333,21117
5.9507,20538
5.95808,20861
5.96545,21110
5.97283,20987
5.98022,20883
5.98758,21271
5.99497,21065
6.00233,20804
6.00972,20595
6.0171,21461
6.02447,20962
6.03185,21347
6.03922,21294
6.0466,21195
6.05397,20977
6.06135,20609
6.06873,21554
6.0761,21175
6.08348,21731
6.09085,21632
6.09823,21825
6.1056,21389
6.11298,20731
6.12037,21072
6.12773,21275
6.13512,20825
6.14248,21159
6.14987,20950
6.15725,21347
6.16462,21142
6.172,21642
6.17937,21241
6.18675,21572
6.19412,21421
6.2015,22609
6.20888,21196
6.21625,22684
6.22363,21481
6.231,21806
6.23838,22189
6.24577,21137
6.25313,20946
6.26052,21037
6.26788,21148
6.27527,21405
6.28263,20901
6.29002,20571
6.2974,20800
6.30477,20908
6.31215,20263
6.31952,20513
6.3269,20447
6.33428,20096
6.34165,20266
6.34903,20676
6.3564,20630
6.36378,20749
6.37115,20243
6.37853,20761
6.38592,20168
6.39328,20549
6.40067,20901
6.40803,20427
6.41542,20861
6.4228,20502
6.43017,20581
6.43755,20449
6.44492,20197
6.4523,19959
6.45967,20061
6.46705,19681
6.47443,20276
6.4818,20245
6.48918,20055
6.49655,19966
6.50393,20574
6.51132,20998
6.51868,20873
6.52607,19821
6.53343,20372
6.54082,20022
6.54818,19827
6.55557,20892
6.56295,19485
6.57032,20380
6.5777,20511
6.58507,20015
6.59245,19872
6.59983,19880
6.6072,20319
6.61458,19571
6.62195,19772
6.62933,20081
6.6367,19616
6.64408,20615
6.65147,20431
6.65883,20119
6.66622,19845
6.67358,20098
6.68097,19995
6.68833,20221
6.69572,19753
6.7031,20632
6.71047,20270
6.71785,20234
6.72522,19592
6.7326,20024
6.73998,20172
6.74735,20746
6.75473,20027
6.7621,19622
6.76948,19367
6.77685,20394
6.78423,20314
6.79162,19969
6.79898,19727
6.80637,19652
6.81373,19556
6.82112,20136
6.8285,19294
6.83587,19229
6.84325,20209
6.85062,19751
6.858,19418
6.86537,20286
6.87275,19867
6.88013,19717
6.8875,20009
6.89488,19890
6.90225,19954
6.90963,20393
6.91702,20117
6.92438,19934
6.93177,20221
6.93913,19716
6.94652,20144
6.95388,19585
6.96127,19720
6.96865,20014
6.97602,20256
6.9834,19667
6.99077,20194
6.99815,20328
7.00553,19495
7.0129,20401
7.02028,20340
7.02765,20391
7.03503,20354
7.0424,20338
7.04978,19833
7.05717,20068
7.06453,20084
7.07192,19692
7.07928,19690
7.08667,19705
7.09405,20802
7.10142,19721
7.1088,20041
7.11617,20511
7.12355,19819
7.13092,19963
7.1383,19694
7.14568,19742
7.15305,20145
7.16043,20018
7.1678,19841
7.17518,20346
7.18257,20297
7.18993,20656
7.19732,20159
7.20468,20989
7.21207,19934
7.21943,19963
7.22682,19963
7.2342,20207
7.24157,20242
7.24895,20513
7.25632,19587
7.2637,20077
7.27107,20294
7.27845,20595
7.28583,20294
7.2932,20336
7.30058,20324
7.30795,20342
7.31533,19673
7.32272,19794
7.33008,19712
7.33747,19991
7.34483,19654
7.35222,20332
7.35958,19864
7.36697,19933
7.37435,20285
7.38172,20811
7.3891,21127
7.39647,20525
7.40385,19508
7.41123,19706
7.4186,19377
7.42598,20136
7.43335,20531
7.44073,20015
7.4481,21116
7.45548,20296
7.46287,19570
7.47023,19258
7.47762,19865
7.48498,19641
7.49237,20323
7.49975,19751
7.50712,19244
7.5145,19848
7.52187,20415
7.52925,19738
7.53662,19970
7.544,19789
7.55138,19978
7.55875,19312
7.56613,19228
7.5735,19782
7.58088,19786
7.58827,19457
7.59563,19635
7.60302,19563
7.61038,20110
7.61777,19771
7.62513,20026
7.63252,19207
7.6399,19730
7.64727,20123
7.65465,20063
7.66202,19940
7.6694,19873
7.67678,20044
7.68415,19583
7.69153,19594
7.6989,19907
7.70628,20220
7.71365,20394
7.72103,20214
7.72842,19508
7.73578,19982
7.74317,19993
7.75053,20391
7.75792,19704
7.7653,20219
7.77267,19954
7.78005,19704
7.78742,20189
7.7948,19988
7.80217,20391
7.80955,20062
7.81693,20030
7.8243,19602
7.83168,19547
7.83905,20097
7.84643,19725
7.8538,20149
7.86118,20066
7.86857,20062
7.87593,20652
7.88332,19989
7.89068,20101
7.89807,19574
7.90545,19528
7.91282,19424
7.9202,19388
7.92757,19632
7.93495,19442
7.94232,18858
7.9497,19449
7.95708,19343
7.96445,19355
7.97183,19400
7.9792,19573
7.98658,19692
7.99397,18835
8.00133,18847
8.00872,18917
8.01608,19306
8.02347,19407
8.03083,19229
8.03822,19390
8.0456,19086
8.05297,20016
8.06035,19506
8.06772,19021
8.0751,19578
8.08248,19461
8.08985,19196
8.09723,19438
8.1046,19654
8.11198,20142
8.11935,19062
8.12673,19339
8.13412,19297
8.14148,18605
8.14887,19231
8.15623,19171
8.16362,19344
8.171,19167
8.17837,19256
8.18575,19720
8.19312,18650
8.2005,19667
8.20787,19120
8.21525,19849
8.22263,19935
8.23,19542
8.23738,18884
8.24475,19471
8.25213,19199
8.25952,19556
8.26688,19310
8.27427,19360
8.28163,19918
8.28902,19649
8.29638,19454
8.30377,19384
8.31115,19545
8.31852,19298
8.3259,19565
8.33327,19651
8.34065,18832
8.34803,19511
8.3554,19409
8.36278,18892
8.37015,19607
8.37753,19530
8.3849,19496
8.39228,19982
8.39967,19221
8.40703,19300
8.41442,19183
8.42178,19383
8.42917,19946
8.43653,20051
8.44392,19994
8.4513,19616
8.45867,19688
8.46605,19876
8.47342,19398
8.4808,19429
8.48818,19220
8.49555,20346
8.50293,20135
8.5103,20617
8.51768,20667
8.52505,19916
8.53243,19925
8.53982,19486
8.54718,19355
8.55457,19693
8.56193,19682
8.56932,20131
8.5767,19962
8.58407,19130
8.59145,20159
8.59882,20031
8.6062,19826
8.61357,19181
8.62095,19616
8.62833,20405
8.6357,20688
8.64308,19573
8.65045,19932
8.65783,20075
8.66522,19806
8.67258,19819
8.67997,19439
8.68733,19240
8.69472,19182
8.70208,19814
8.70947,19762
8.71685,19172
8.72422,19904
8.7316,19548
8.73897,19422
8.74635,19282
8.75373,19488
8.7611,19130
8.76848,20004
8.77585,20280
8.78323,19791
8.7906,19178
8.79798,19162
8.80537,19817
8.81273,19346
8.82012,19806
8.82748,19952
8.83487,19863
8.84225,19105
8.84962,19797
8.857,19512
8.86437,19941
8.87175,19604
8.87912,19768
8.8865,19155
8.89388,19329
8.90125,19966
8.90863,21092
8.916,35553
8.92338,66626
8.93077,81169
8.93813,65888
8.94552,52002
8.95288,45104
8.96027,40833
8.96763,38619
8.97502,35183
8.9824,34583
8.98977,31705
8.99715,30537
9.00452,29881
9.0119,28203
9.01927,28896
9.02665,27787
9.03403,28079
9.0414,26480
9.04878,26685
9.05615,25085
9.06353,25256
9.07092,25286
9.07828,24904
9.08567,24311
9.09303,24527
9.10042,24512
9.10778,23838
9.11517,23992
9.12255,23885
9.12992,23741
9.1373,23333
9.14467,23302
9.15205,23117
9.15943,23164
9.1668,23636
9.17418,23707
9.18155,22461
9.18893,23069
9.1963,22481
9.20368,22381
9.21107,22463
9.21843,21959
9.22582,22314
9.23318,21764
9.24057,21885
9.24795,22405
9.25532,22372
9.2627,22175
9.27007,21703
9.27745,21922
9.28482,22191
9.2922,22443
9.29958,23084
9.30695,22537
9.31433,22578
9.3217,22879
9.32908,23677
9.33647,22825
9.34383,22775
9.35122,23166
9.35858,22976
9.36597,23837
9.37333,22797
9.38072,23081
9.3881,22940
9.39547,23094
9.40285,22694
9.41022,22879
9.4176,23596
9.42498,23199
9.43235,22916
9.43973,22502
9.4471,22334
9.45448,22727
9.46185,22742
9.46923,21925
9.47662,22131
9.48398,22736
9.49137,23236
9.49873,23306
9.50612,23146
9.5135,23688
9.52087,23059
9.52825,22688
9.53562,22613
9.543,21939
9.55037,22981
9.55775,22324
9.56513,22345
9.5725,22051
9.57988,21789
9.58725,22526
9.59463,22247
9.602,22667
9.60938,21782
9.61677,21626
9.62413,22025
9.63152,21165
9.63888,21351
9.64627,21228
9.65365,21042
9.66102,21570
9.6684,22020
9.67577,20952
9.68315,20969
9.69052,20927
9.6979,21328
9.70528,20937
9.71265,21230
9.72003,20914
9.7274,21078
9.73478,21388
9.74217,21053
9.74953,21463
9.75692,21158
9.76428,21369
9.77167,21485
9.77903,20934
9.78642,20018
9.7938,20829
9.80117,21164
9.80855,20981
9.81592,20842
9.8233,20606
9.83068,20770
9.83805,20519
9.84543,21241
9.8528,20152
9.86018,20091
9.86755,20700
9.87493,21026
9.88232,20782
9.88968,20852
9.89707,22670
9.90443,25079
9.91182,23272
9.9192,21296
9.92657,20946
9.93395,21710
9.94132,21624
9.9487,20999
9.95607,20520
9.96345,21273
9.97083,20379
9.9782,20647
9.98558,20513
9.99295,20792
10.0003,21297
10.0077,20824
10.0151,20822
10.0225,20162
10.0298,21707
10.0372,20902
10.0446,21351
10.052,21609
10.0594,21384
10.0667,20795
10.0741,20847
10.0815,20939
10.0889,20873
10.0962,20650
10.1036,20331
10.111,21592
10.1184,20085
10.1257,21267
10.1331,20988
10.1405,20992
10.1479,20565
10.1552,20409
10.1626,20909
10.17,20126
10.1774,21184
10.1847,21678
10.1921,20910
10.1995,21159
10.2069,21350
10.2143,20955
10.2216,21277
10.229,20986
10.2364,20667
10.2438,21143
10.2511,20978
10.2585,21208
10.2659,20641
10.2733,20342
10.2806,20723
10.288,20749
10.2954,21178
10.3028,21316
10.3101,20435
10.3175,21442
10.3249,21040
10.3323,20893
10.3397,20831
10.347,20520
10.3544,20683
10.3618,20832
10.3692,20497
10.3765,20995
10.3839,21199
10.3913,20477
10.3987,21204
10.406,21205
10.4134,20761
10.4208,20789
10.4282,20447
10.4355,20526
10.4429,20288
10.4503,20354
10.4577,20792
10.4651,21000
10.4724,21559
10.4798,20343
10.4872,20728
10.4946,21042
10.5019,20647
10.5093,20480
10.5167,20676
10.5241,20939
10.5314,21001
10.5388,20980
10.5462,20808
10.5536,21434
10.5609,21469
10.5683,21089
10.5757,21272
10.5831,20513
10.5905,20569
10.5978,20990
10.6052,20718
10.6126,21525
10.62,20886
10.6273,21047
10.6347,21106
10.6421,20872
10.6495,20595
10.6568,20643
10.6642,20985
10.6716,20962
10.679,21372
10.6863,20810
10.6937,21406
10.7011,21008
10.7085,20825
10.7158,20759
10.7232,20658
10.7306,20862
10.738,21519
10.7454,21211
10.7527,20828
10.7601,21253
10.7675,21154
10.7749,21081
10.7822,21008
10.7896,21412
10.797,21188
10.8044,21015
10.8117,21010
10.8191,21701
10.8265,21962
10.8339,21556
10.8412,20189
10.8486,19978
10.856,20846
10.8634,20970
10.8708,21435
10.8781,20698
10.8855,21347
10.8929,20856
10.9003,20937
10.9076,21220
10.915,21401
10.9224,21033
10.9298,21128
10.9371,22006
10.9445,20870
10.9519,21333
10.9593,21322
10.9666,21342
10.974,20950
10.9814,20604
10.9888,21384
10.9962,21193
11.0035,20828
11.0109,21926
11.0183,22681
11.0257,24166
11.033,24579
11.0404,24644
11.0478,25020
11.0552,24954
11.0625,24369
11.0699,22461
11.0773,21952
11.0847,21275
11.092,21353
11.0994,21250
11.1068,21375
11.1142,21163
11.1215,21230
11.1289,20646
11.1363,20954
11.1437,21280
11.1511,22062
11.1584,20872
11.1658,21841
11.1732,21567
11.1806,21502
11.1879,21332
11.1953,21306
11.2027,21516
11.2101,21344
11.2174,21375
11.2248,21126
11.2322,21583
11.2396,21710
11.2469,21988
11.2543,21759
11.2617,21936
11.2691,20886
11.2765,21402
11.2838,21536
11.2912,22283
11.2986,23106
11.306,22354
11.3133,22283
11.3207,21984
11.3281,21756
11.3355,21774
11.3428,21501
11.3502,21448
11.3576,21241
11.365,21614
11.3723,21688
11.3797,21543
11.3871,21477
11.3945,21219
11.4019,22150
11.4092,21790
11.4166,21283
11.424,21512
11.4314,21835
11.4387,22382
11.4461,21042
11.4535,21727
11.4609,21745
11.4682,22070
11.4756,21450
11.483,21699
11.4904,21509
11.4977,21875
11.5051,21600
11.5125,21278
11.5199,22430
11.5272,22039
11.5346,21976
11.542,22297
11.5494,21708
11.5568,21866
11.5641,22123
11.5715,22039
11.5789,22430
11.5863,21808
11.5936,22127
11.601,21697
11.6084,21247
11.6158,22159
11.6231,21884
11.6305,21618
11.6379,21677
11.6453,21723
11.6526,22197
11.66,22015
11.6674,21870
11.6748,22209
11.6822,22209
11.6895,22059
11.6969,21809
11.7043,22436
11.7117,21865
11.719,21953
11.7264,21921
11.7338,22077
11.7412,22308
11.7485,22223
11.7559,22698
11.7633,22486
11.7707,22558
11.778,22326
11.7854,22236
11.7928,22317
11.8002,21904
11.8076,22593
11.8149,22611
11.8223,22971
11.8297,22254
11.8371,22697
11.8444,22681
11.8518,22044
11.8592,22574
11.8666,22934
11.8739,22539
11.8813,22435
11.8887,22561
11.8961,22206
11.9034,22133
11.9108,22908
11.9182,22170
11.9256,22978
11.933,22758
11.9403,22657
11.9477,22417
11.9551,22736
11.9625,22868
11.9698,22124
11.9772,22034
11.9846,22494
11.992,23074
11.9993,21739
12.0067,22985
12.0141,22989
12.0215,22915
12.0288,22962
12.0362,22554
12.0436,22292
12.051,22770
12.0583,22951
12.0657,22899
12.0731,22305
12.0805,23052
12.0879,23389
12.0952,23125
12.1026,22854
12.11,22966
12.1174,22925
12.1247,23055
12.1321,23081
12.1395,22362
12.1469,23137
12.1542,23633
12.1616,22704
12.169,22823
12.1764,22337
12.1837,23625
12.1911,23249
12.1985,22084
12.2059,23262
12.2133,23020
12.2206,23060
12.228,23143
12.2354,22733
12.2428,22673
12.2501,22987
12.2575,23292
12.2649,23074
12.2723,23173
12.2796,22591
12.287,23077
12.2944,23486
12.3018,22548
12.3091,23488
12.3165,23281
12.3239,23300
12.3313,22921
12.3387,22735
12.346,22916
12.3534,23021
12.3608,22232
12.3682,21957
12.3755,22398
12.3829,23516
12.3903,23370
12.3977,23476
12.405,25174
12.4124,25352
12.4198,25556
12.4272,23792
12.4345,23210
12.4419,22948
12.4493,23389
12.4567,23556
12.464,22894
12.4714,24117
12.4788,24078
12.4862,23060
12.4936,23342
12.5009,23760
12.5083,22947
12.5157,23529
12.5231,22978
12.5304,23288
12.5378,23080
12.5452,23530
12.5526,23501
12.5599,23100
12.5673,24015
12.5747,23622
12.5821,24029
12.5894,23610
12.5968,23042
12.6042,23499
12.6116,24280
12.619,23016
12.6263,24527
12.6337,24207
12.6411,23533
12.6485,23086
12.6558,24377
12.6632,23984
12.6706,23721
12.678,23914
12.6853,23521
12.6927,24084
12.7001,23573
12.7075,23953
12.7148,24129
12.7222,24102
12.7296,24159
12.737,24490
12.7444,24036
12.7517,23914
12.7591,23151
12.7665,24271
12.7739,24392
12.7812,24812
12.7886,23671
12.796,24394
12.8034,24711
12.8107,24358
12.8181,24440
12.8255,23810
12.8329,24739
12.8402,24550
12.8476,24163
12.855,24809
12.8624,24616
12.8697,24392
12.8771,24323
12.8845,25238
12.8919,24527
12.8993,24313
12.9066,24384
12.914,24325
12.9214,24460
12.9288,25292
12.9361,24810
12.9435,24728
12.9509,24174
12.9583,24558
12.9656,24654
12.973,23788
12.9804,24421
12.9878,25177
12.9951,24072
13.0025,24697
13.0099,23823
13.0173,24583
13.0247,24333
13.032,24659
13.0394,24858
13.0468,25041
13.0542,24481
13.0615,24919
13.0689,25507
13.0763,24890
13.0837,25676
13.091,25452
13.0984,24246
13.1058,25338
13.1132,25317
13.1205,25150
13.1279,25112
13.1353,24676
13.1427,24596
13.1501,25049
13.1574,25302
13.1648,25100
13.1722,25676
13.1796,25124
13.1869,24469
13.1943,25669
13.2017,24766
13.2091,24994
13.2164,25380
13.2238,24447
13.2312,25367
13.2386,25622
13.2459,25389
13.2533,24509
13.2607,24798
13.2681,26185
13.2754,25724
13.2828,24900
13.2902,25910
13.2976,25115
13.305,25406
13.3123,26303
13.3197,25941
13.3271,26304
13.3345,26095
13.3418,25787
13.3492,24912
13.3566,25514
13.364,25762
13.3713,25598
13.3787,25899
13.3861,25251
13.3935,26182
13.4008,25992
13.4082,26808
13.4156,25810
13.423,26111
13.4304,26192
13.4377,26553
13.4451,26039
13.4525,25801
13.4599,25580
13.4672,26755
13.4746,26203
13.482,26539
13.4894,26725
13.4967,26125
13.5041,26501
13.5115,26584
13.5189,27020
13.5262,27057
13.5336,26520
13.541,27059
13.5484,26191
13.5558,26546
13.5631,26652
13.5705,27474
13.5779,28528
13.5853,27996
13.5926,26927
13.6,26891
13.6074,27906
13.6148,26865
13.6221,27105
13.6295,26667
13.6369,27562
13.6443,27144
13.6516,27337
13.659,26462
13.6664,27517
13.6738,26735
13.6812,28750
13.6885,27328
13.6959,28364
13.7033,27910
13.7107,28767
13.718,28910
13.7254,27713
13.7328,27697
13.7402,27460
13.7475,27797
13.7549,29070
13.7623,28370
13.7697,28613
13.777,28759
13.7844,28726
13.7918,29959
13.7992,28565
13.8065,29118
13.8139,28587
13.8213,30118
13.8287,28603
13.8361,28594
13.8434,28360
13.8508,28728
13.8582,28107
13.8656,28100
13.8729,28694
13.8803,29010
13.8877,28744
13.8951,28548
13.9024,28355
13.9098,29138
13.9172,29259
13.9246,28834
13.9319,29324
13.9393,30182
13.9467,29678
13.9541,29043
13.9615,29464
13.9688,29650
13.9762,29302
13.9836,30016
13.991,29876
13.9983,29762
14.0057,29677
14.0131,29931
14.0205,30043
14.0278,30051
14.0352,30637
14.0426,30842
14.05,30565
14.0573,30102
14.0647,30015
14.0721,30177
14.0795,30619
14.0869,30835
14.0942,30499
14.1016,30699
14.109,31105
14.1164,30892
14.1237,30538
14.1311,29961
14.1385,30674
14.1459,31275
14.1532,29806
14.1606,30072
14.168,31033
14.1754,31384
14.1827,31189
14.1901,30945
14.1975,30774
14.2049,31095
14.2122,31477
14.2196,30767
14.227,30717
14.2344,31352
14.2418,32084
14.2491,30909
14.2565,30708
14.2639,31527
14.2713,32258
14.2786,31976
14.286,32766
14.2934,34103
14.3008,33534
14.3081,33138
14.3155,31432
14.3229,33843
14.3303,34515
14.3376,34869
14.345,34079
14.3524,34017
14.3598,34639
14.3672,33708
14.3745,33571
14.3819,34561
14.3893,33979
14.3967,34153
14.404,34575
14.4114,34488
14.4188,34139
14.4262,34440
14.4335,34317
14.4409,33921
14.4483,34597
14.4557,34449
14.463,35870
14.4704,35911
14.4778,37013
14.4852,36123
14.4926,36258
14.4999,37063
14.5073,36446
14.5147,36647
14.5221,36157
14.5294,35641
14.5368,36191
14.5442,36601
14.5516,36176
14.5589,37218
14.5663,36821
14.5737,36877
14.5811,37332
14.5884,37739
14.5958,37398
14.6032,37351
14.6106,37275
14.6179,37612
14.6253,37601
14.6327,37333
14.6401,37452
14.6475,37835
14.6548,38049
14.6622,38477
14.6696,38801
14.677,39064
14.6843,39410
14.6917,38362
14.6991,39061
14.7065,38994
14.7138,39518
14.7212,39421
14.7286,39528
14.736,39408
14.7433,40391
14.7507,40064
14.7581,39470
14.7655,39921
14.7729,41188
14.7802,40822
14.7876,41966
14.795,41550
14.8024,42738
14.8097,41902
14.8171,43796
14.8245,42624
14.8319,42437
14.8392,42888
14.8466,42933
14.854,43809
14.8614,42940
14.8687,44408
14.8761,44486
14.8835,43992
14.8909,45716
14.8983,45941
14.9056,45757
14.913,46347
14.9204,47182
14.9278,46924
14.9351,45178
14.9425,46643
14.9499,47035
14.9573,47146
14.9646,48439
14.972,48871
14.9794,49237
14.9868,48453
14.9941,49329
15.0015,49887
15.0089,50478
15.0163,51660
15.0236,51897
15.031,52348
15.0384,51511
15.0458,51754
15.0532,51277
15.0605,50989
15.0679,51438
15.0753,52414
15.0827,52002
15.09,51879
15.0974,53249
15.1048,53883
15.1122,53346
15.1195,54893
15.1269,57173
15.1343,56148
15.1417,57060
15.149,55738
15.1564,56582
15.1638,55882
15.1712,57224
15.1786,56720
15.1859,56482
15.1933,57940
15.2007,58356
15.2081,58319
15.2154,59862
15.2228,60640
15.2302,59031
15.2376,60785
15.2449,60173
15.2523,60717
15.2597,60461
15.2671,61179
15.2744,61810
15.2818,61544
15.2892,62745
15.2966,63159
15.304,65531
15.3113,66394
15.3187,65283
15.3261,65034
15.3335,64915
15.3408,63469
15.3482,64463
15.3556,65645
15.363,66495
15.3703,65809
15.3777,65993
15.3851,65723
15.3925,66006
15.3998,66972
15.4072,63462
15.4146,66120
15.422,67213
15.4294,67286
15.4367,66557
15.4441,66806
15.4515,66659
15.4589,66849
15.4662,67723
15.4736,68204
15.481,67561
15.4884,67896
15.4957,68655
15.5031,70410
15.5105,71968
15.5179,69940
15.5252,71969
15.5326,72838
15.54,72233
15.5474,71970
15.5547,73463
15.5621,73886
15.5695,74030
15.5769,76742
15.5843,74900
15.5916,76947
15.599,78565
15.6064,78917
15.6138,78615
15.6211,80552
15.6285,78223
15.6359,79074
15.6433,80582
15.6506,79958
15.658,81156
15.6654,81988
15.6728,82221
15.6801,83434
15.6875,84051
15.6949,84326
15.7023,85187
15.7097,86847
15.717,87820
15.7244,87634
15.7318,88663
15.7392,89849
15.7465,89840
15.7539,92683
15.7613,90891
15.7687,90757
15.776,90887
15.7834,92869
15.7908,94395
15.7982,95061
15.8055,97199
15.8129,95603
15.8203,96027
15.8277,95982
15.8351,98864
15.8424,99828
15.8498,100083
15.8572,101533
15.8646,98802
15.8719,102652
15.8793,102571
15.8867,103172
15.8941,104645
15.9014,104089
15.9088,105595
15.9162,108730
15.9236,108895
15.9309,110799
15.9383,110448
15.9457,112728
15.9531,113480
15.9604,115975
15.9678,118696
15.9752,117667
15.9826,118751
15.99,119445
15.9973,120201
16.0047,121491
16.0121,121961
16.0194,123040
16.0268,124409
16.0342,125359
16.0416,126173
16.049,127306
16.0563,128605
16.0637,128733
16.0711,128785
16.0785,129137
16.0858,129343
16.0932,131778
16.1006,133992
16.108,132070
16.1153,134404
16.1227,135909
16.1301,135203
16.1375,135128
16.1449,133188
16.1522,135426
16.1596,135907
16.167,135571
16.1744,134591
16.1817,136384
16.1891,137771
16.1965,138335
16.2039,138299
16.2112,137117
16.2186,137215
16.226,139296
16.2334,138583
16.2407,140025
16.2481,141721
16.2555,139791
16.2629,142081
16.2703,141499
16.2776,143693
16.285,144096
16.2924,144358
16.2998,145357
16.3071,144703
16.3145,143782
16.3219,145556
16.3293,146204
16.3366,145608
16.344,144348
16.3514,145148
16.3588,146047
16.3661,144091
16.3735,143481
16.3809,146109
16.3883,143005
16.3957,146624
16.403,145564
16.4104,146892
16.4178,148533
16.4251,151252
16.4325,152635
16.4399,152877
16.4473,151528
16.4547,151394
16.462,156668
16.4694,153483
16.4768,155821
16.4842,154729
16.4915,153801
16.4989,156967
16.5063,157830
16.5137,156850
16.521,155605
16.5284,156850
16.5358,155833
16.5432,154863
16.5506,158556
16.5579,157982
16.5653,158219
16.5727,163269
16.5801,160441
16.5874,160299
16.5948,159682
16.6022,159928
16.6096,161736
16.6169,160883
16.6243,163433
16.6317,160710
16.6391,158971
16.6465,163791
16.6538,162994
16.6612,166995
16.6686,172195
16.676,174297
16.6833,171455
16.6907,170494
16.6981,167145
16.7054,167350
16.7128,168879
16.7202,169816
16.7276,172388
16.735,173489
16.7423,174160
16.7497,173183
16.7571,171833
16.7645,170733
16.7718,169341
16.7792,166606
16.7866,166299
16.794,168100
16.8013,172666
16.8087,170883
16.8161,174078
16.8235,171321
16.8309,173077
16.8382,170761
16.8456,171039
16.853,167020
16.8604,167428
16.8677,165787
16.8751,164033
16.8825,164090
16.8899,163572
16.8972,164684
16.9046,166218
16.912,163028
16.9194,163282
16.9267,165358
16.9341,167765
16.9415,164201
16.9489,166475
16.9563,166066
16.9636,165405
16.971,165546
16.9784,167333
16.9857,165979
16.9931,167142
17.0005,164800
17.0079,166279
17.0153,167611
17.0226,166722
17.03,165956
17.0374,167772
17.0448,166421
17.0522,168210
17.0595,168469
17.0669,168264
17.0743,169091
17.0817,165817
17.089,167426
17.0964,166836
17.1038,166765
17.1111,166362
17.1185,164689
17.1259,166431
17.1333,166725
17.1407,165952
17.148,168139
17.1554,166538
17.1628,167096
17.1702,166005
17.1776,165657
17.1849,166312
17.1923,166628
17.1997,168103
17.207,169184
17.2144,166076
17.2218,167208
17.2292,167324
17.2366,168226
17.2439,167415
17.2513,165982
17.2587,166839
17.2661,166334
17.2734,167978
17.2808,167797
17.2882,169613
17.2956,168198
17.3029,166540
17.3103,165770
17.3177,166299
17.3251,168442
17.3325,168298
17.3398,166673
17.3472,165708
17.3546,165449
17.362,165716
17.3693,166526
17.3767,168838
17.3841,168868
17.3914,169754
17.3988,167924
17.4062,167781
17.4136,168221
17.421,166634
17.4283,169376
17.4357,168982
17.4431,167863
17.4505,168379
17.4579,169008
17.4652,167390
17.4726,167013
17.48,167482
17.4873,169878
