D:\Data GC-MS\2021\8 AUGUST\30-08-21\45420-21 1 DM.D 30 Aug 21  03:32 pm
Start of data points
1.29373,4756382
1.30047,4651058
1.30722,4633842
1.31395,4637029
1.3207,4645825
1.32745,4684344
1.33418,4728705
1.34093,4777613
1.34767,4757655
1.35442,4664156
1.36115,4474944
1.3679,4248564
1.37465,3972211
1.38138,3697680
1.38813,3374734
1.39487,3046165
1.40162,2744257
1.40835,2464398
1.4151,2194033
1.42185,1975744
1.42858,1778508
1.43533,1600778
1.44207,1458059
1.44882,1325018
1.45555,1219855
1.4623,1119536
1.46903,1040956
1.47578,962295
1.48253,894392
1.48927,823666
1.51013,2381031
1.5175,2186299
1.52488,2040497
1.53227,1865819
1.53963,1728953
1.54702,1593787
1.55438,1467179
1.56177,1363450
1.56915,1258650
1.57652,1157860
1.5839,1057265
1.59127,978429
1.59865,897030
1.60602,824561
1.6134,758323
1.62078,699125
1.62815,643813
1.63553,581384
1.6429,528636
1.65028,476636
1.65767,431060
1.66503,400049
1.67242,368961
1.67978,336452
1.68717,313286
1.69453,287654
1.70192,263275
1.7093,245340
1.71667,227066
1.72405,209864
1.73142,192309
1.7388,178445
1.74618,164494
1.75355,150650
1.76093,138806
1.7683,132261
1.77568,122674
1.78305,113284
1.79043,101503
1.79782,94498
1.80518,86090
1.81257,78673
1.81993,72326
1.82732,66853
1.8347,62934
1.84207,57217
1.84945,54117
1.85682,49288
1.8642,45146
1.87157,41765
1.87895,39952
1.88633,42507
1.8937,41796
1.90108,39320
1.90845,35207
1.91583,32965
1.92322,29502
1.93058,27843
1.93797,27339
1.94533,26679
1.95272,26098
1.96008,24287
1.96747,22794
1.97485,21067
1.98222,20316
1.9896,18930
1.99697,18002
2.00435,15943
2.01172,15539
2.0191,14313
2.02648,13310
2.03385,13032
2.04123,12441
2.0486,11930
2.05598,10945
2.06337,10632
2.07073,10174
2.07812,9424
2.08548,8813
2.09287,8567
2.10023,8510
2.10762,7921
2.115,7759
2.12237,7510
2.12975,7434
2.13712,7048
2.1445,6725
2.15188,6484
2.15925,6365
2.16663,6276
2.174,6136
2.18138,5973
2.18875,6226
2.19613,6479
2.20352,6096
2.21088,5945
2.21827,5582
2.22563,5645
2.23302,5806
2.2404,5605
2.24777,5381
2.25515,5370
2.26252,5597
2.2699,6052
2.27727,6558
2.28465,10236
2.29203,13055
2.2994,12472
2.30678,11813
2.31415,11585
2.32153,11406
2.32892,10836
2.33628,10862
2.34367,10492
2.35103,9956
2.35842,9352
2.36578,9075
2.37317,8908
2.38055,8680
2.38792,8177
2.3953,7664
2.40267,7086
2.41005,6724
2.41743,6347
2.4248,6188
2.43218,6156
2.43955,5534
2.44693,5736
2.4543,5476
2.46168,5687
2.46907,5467
2.47643,5127
2.48382,4703
2.49118,4996
2.49857,5327
2.50595,5017
2.51332,5180
2.5207,4965
2.52807,5226
2.53545,5094
2.54282,5190
2.5502,5377
2.55758,5511
2.56495,4812
2.57233,5469
2.5797,5390
2.58708,5386
2.59445,4999
2.60183,5614
2.60922,6398
2.61658,6425
2.62397,5814
2.63133,5729
2.63872,5420
2.6461,5358
2.65347,5621
2.66085,5131
2.66822,5533
2.6756,5481
2.68297,6581
2.69035,6902
2.69773,6771
2.7051,6630
2.71248,6424
2.71985,6268
2.72723,6386
2.73462,6209
2.74198,5887
2.74937,5483
2.75673,5709
2.76412,5278
2.77148,5455
2.77887,5680
2.78625,5194
2.79362,5149
2.801,4962
2.80837,4913
2.81575,4832
2.82313,4793
2.8305,5314
2.83788,4898
2.84525,5217
2.85263,5010
2.86,5206
2.86738,5515
2.87477,5315
2.88213,4977
2.88952,5962
2.89688,5583
2.90427,5440
2.91165,4840
2.91902,4876
2.9264,4935
2.93377,5522
2.94115,5133
2.94852,4945
2.9559,4641
2.96328,5083
2.97065,5073
2.97803,4748
2.9854,4842
2.99278,4909
3.00017,4673
3.00753,6289
3.01492,6444
3.02228,6090
3.02967,6412
3.03703,6276
3.04442,6023
3.0518,6251
3.05917,5942
3.06655,5969
3.07392,6546
3.0813,5982
3.08868,6314
3.09605,6178
3.10343,6218
3.1108,6052
3.11818,6338
3.12555,5798
3.13293,5891
3.14032,5662
3.14768,5888
3.15507,5465
3.16243,5808
3.16982,5221
3.1772,5074
3.18457,5585
3.19195,5460
3.19932,5542
3.2067,5272
3.21407,5049
3.22145,4956
3.22883,5168
3.2362,5231
3.24358,5112
3.25095,5265
3.25833,5727
3.2657,5821
3.27308,5622
3.28047,5828
3.28783,5387
3.29522,5111
3.30258,4923
3.30997,5003
3.31735,5202
3.32472,6037
3.3321,6609
3.33947,7430
3.34685,7982
3.35422,7611
3.3616,7672
3.36898,7934
3.37635,6582
3.38373,6667
3.3911,6227
3.39848,6137
3.40587,5924
3.41323,5929
3.42062,5690
3.42798,5622
3.43537,5378
3.44273,5001
3.45012,5952
3.4575,6922
3.46487,6343
3.47225,7031
3.47962,7032
3.487,6953
3.49438,6917
3.50175,6536
3.50913,6972
3.5165,6568
3.52388,6665
3.53125,6862
3.53863,7105
3.54602,7000
3.55338,6815
3.56077,7309
3.56813,6974
3.57552,7120
3.5829,7267
3.59027,7453
3.59765,7258
3.60502,7521
3.6124,7563
3.61977,7453
3.62715,7475
3.63453,7619
3.6419,7684
3.64928,7398
3.65665,7525
3.66403,7011
3.67142,7697
3.67878,7266
3.68617,7429
3.69353,7272
3.70092,7252
3.70828,7422
3.71567,7804
3.72305,7793
3.73042,7991
3.7378,7350
3.74517,7297
3.75255,7728
3.75993,7654
3.7673,7454
3.77468,7101
3.78205,7189
3.78943,7384
3.7968,7230
3.80418,7725
3.81157,7113
3.81893,7411
3.82632,7573
3.83368,7679
3.84107,7116
3.84843,6917
3.85582,7184
3.8632,7157
3.87057,7393
3.87795,7421
3.88532,7365
3.8927,7034
3.90008,7133
3.90745,6120
3.91483,6223
3.9222,5753
3.92958,6091
3.93695,6087
3.94433,6219
3.95172,6366
3.95908,6343
3.96647,6270
3.97383,6325
3.98122,6187
3.9886,6099
3.99597,5992
4.00335,6449
4.01072,6218
4.0181,6233
4.02547,6148
4.03285,6235
4.04023,6294
4.0476,6373
4.05498,6386
4.06235,6397
4.06973,6475
4.07712,6600
4.08448,6538
4.09187,6901
4.09923,6385
4.10662,6402
4.11398,6431
4.12137,6464
4.12875,6579
4.13612,6252
4.1435,6449
4.15087,6470
4.15825,6430
4.16563,6463
4.173,6472
4.18038,7482
4.18775,7203
4.19513,7201
4.2025,6688
4.20988,6395
4.21727,6729
4.22463,6559
4.23202,6303
4.23938,6091
4.24677,5879
4.25415,6272
4.26152,6189
4.2689,6148
4.27627,6244
4.28365,6164
4.29102,6010
4.2984,5720
4.30578,5481
4.31315,6336
4.32053,6093
4.3279,5535
4.33528,5861
4.34267,6095
4.35003,6019
4.35742,5766
4.36478,6179
4.37217,6126
4.37953,5547
4.38692,6147
4.3943,5761
4.40167,5555
4.40905,5709
4.41642,5296
4.4238,5437
4.43117,5686
4.43855,5954
4.44593,5525
4.4533,5952
4.46068,5572
4.46805,5787
4.47543,5865
4.48282,4872
4.49018,5046
4.49757,5176
4.50493,5010
4.51232,4775
4.51968,5165
4.52707,5039
4.53445,5092
4.54182,5443
4.5492,5278
4.55657,5628
4.56395,5748
4.57133,5483
4.5787,5453
4.58608,5258
4.59345,5381
4.60083,5459
4.6082,5693
4.61558,5293
4.62297,4717
4.63033,5217
4.63772,5165
4.64508,4907
4.65247,4917
4.65985,5083
4.66722,5373
4.6746,5137
4.68197,5397
4.68935,5234
4.69672,5074
4.7041,4973
4.71148,5022
4.71885,5051
4.72623,4751
4.7336,4955
4.74098,5702
4.74837,5185
4.75573,5419
4.76312,5240
4.77048,5057
4.77787,4983
4.78523,5087
4.79262,4616
4.8,5087
4.80737,5007
4.81475,5267
4.82212,5506
4.8295,5086
4.83688,5051
4.84425,5491
4.85163,5421
4.859,5569
4.86638,5461
4.87375,4963
4.88113,5191
4.88852,5212
4.89588,4970
4.90327,5083
4.91063,4949
4.91802,5266
4.9254,5345
4.93277,4681
4.94015,5451
4.94752,5665
4.9549,5381
4.96227,5162
4.96965,5080
4.97703,4933
4.9844,4683
4.99178,5140
4.99915,4940
5.00653,4939
5.0139,4549
5.02128,4693
5.02867,5226
5.03603,5764
5.04342,5911
5.05078,5860
5.05817,5960
5.06555,5681
5.07292,5791
5.0803,5670
5.08767,5486
5.09505,5702
5.10242,5586
5.1098,5365
5.11718,5181
5.12455,5670
5.13193,5246
5.1393,5744
5.14668,5412
5.15407,5499
5.16143,5648
5.16882,5355
5.17618,5834
5.18357,5769
5.19093,5539
5.19832,5217
5.2057,5167
5.21307,5593
5.22045,5173
5.22782,5047
5.2352,5177
5.24258,4984
5.24995,4750
5.25733,4859
5.2647,5025
5.27208,4893
5.27945,4796
5.28683,5134
5.29422,5372
5.30158,5772
5.30897,5276
5.31633,4818
5.32372,5135
5.3311,5741
5.33847,5026
5.34585,4952
5.35322,5117
5.3606,4941
5.36797,4814
5.37535,4594
5.38273,4628
5.3901,4751
5.39748,6394
5.40485,6250
5.41223,6042
5.41962,5993
5.42698,5551
5.43437,5597
5.44173,6093
5.44912,5540
5.45648,5384
5.46387,5443
5.47125,5221
5.47862,5125
5.486,5385
5.49337,5076
5.50075,4860
5.50813,4714
5.5155,5250
5.52288,4844
5.53025,5212
5.53763,4806
5.545,5002
5.55238,4698
5.55977,5082
5.56713,5209
5.57452,4898
5.58188,4881
5.58927,4987
5.59663,4877
5.60402,4807
5.6114,5516
5.61877,6227
5.62615,6307
5.63352,6416
5.6409,6318
5.64828,6310
5.65565,6448
5.66303,6002
5.6704,6218
5.67778,6386
5.68515,6356
5.69253,6474
5.69992,6133
5.70728,5998
5.71467,5714
5.72203,6201
5.72942,5742
5.7368,5955
5.74417,5919
5.75155,6263
5.75892,6288
5.7663,6400
5.77367,6269
5.78105,5809
5.78843,6246
5.7958,5944
5.80318,6194
5.81055,6839
5.81793,7055
5.82532,6362
5.83268,5498
5.84007,5494
5.84743,5694
5.85482,5592
5.86218,5447
5.86957,5295
5.87695,5266
5.88432,5542
5.8917,4835
5.89907,4961
5.90645,4979
5.91383,4712
5.9212,4856
5.92858,4654
5.93595,4855
5.94333,4548
5.9507,4311
5.95808,4842
5.96547,4453
5.97283,4689
5.98022,4249
5.98758,4361
5.99497,4555
6.00235,4167
6.00972,4154
6.0171,4084
6.02447,3967
6.03185,4056
6.03922,3817
6.0466,4218
6.05398,4054
6.06135,3851
6.06873,4007
6.0761,3946
6.08348,3821
6.09087,4044
6.09823,4028
6.10562,4219
6.11298,4388
6.12037,3980
6.12773,3906
6.13512,4162
6.1425,4080
6.14987,3981
6.15725,3604
6.16462,3643
6.172,3457
6.17937,3497
6.18675,3708
6.19413,3691
6.2015,4102
6.20888,4346
6.21625,4125
6.22363,3980
6.23102,3703
6.23838,3638
6.24577,3779
6.25313,3466
6.26052,3523
6.26788,4003
6.27527,3795
6.28265,3848
6.29002,3533
6.2974,3744
6.30477,3387
6.31215,3576
6.31953,3394
6.3269,3634
6.33428,3389
6.34165,3450
6.34903,3543
6.3564,3305
6.36378,3451
6.37117,3359
6.37853,3379
6.38592,3652
6.39328,3758
6.40067,3651
6.40805,3586
6.41542,3748
6.4228,3726
6.43017,3524
6.43755,4397
6.44492,5181
6.4523,4576
6.45968,4427
6.46705,4115
6.47443,4226
6.4818,4323
6.48918,4113
6.49657,4282
6.50393,3961
6.51132,3522
6.51868,3684
6.52607,3672
6.53343,3866
6.54082,3401
6.5482,3489
6.55557,3628
6.56295,3894
6.57032,3706
6.5777,3374
6.58508,3648
6.59245,3563
6.59983,3439
6.6072,3537
6.61458,3600
6.62195,3586
6.62933,3794
6.63672,3686
6.64408,3747
6.65147,3780
6.65883,3602
6.66622,3535
6.6736,3552
6.68097,3516
6.68835,3801
6.69572,3526
6.7031,3970
6.71047,3791
6.71785,3967
6.72523,4086
6.7326,3871
6.73998,3711
6.74735,3472
6.75473,3815
6.7621,4329
6.76948,5048
6.77687,4727
6.78423,4829
6.79162,4657
6.79898,4594
6.80637,4379
6.81375,4614
6.82112,4579
6.8285,4587
6.83587,4644
6.84325,4884
6.85062,4701
6.858,4839
6.86538,4472
6.87275,4645
6.88013,4681
6.8875,4469
6.89488,4532
6.90227,4845
6.90963,4722
6.91702,4737
6.92438,4818
6.93177,4615
6.93913,4723
6.94652,4476
6.9539,4603
6.96127,4839
6.96865,4979
6.97602,4435
6.9834,4506
6.99078,4891
6.99815,4795
7.00553,4444
7.0129,4647
7.02028,4598
7.02765,4550
7.03503,4779
7.04242,5096
7.04978,5203
7.05717,5198
7.06453,5345
7.07192,5194
7.0793,5429
7.08667,4799
7.09405,5281
7.10142,5173
7.1088,4729
7.11617,5213
7.12355,5013
7.13093,4661
7.1383,5079
7.14568,5303
7.15305,5389
7.16043,5612
7.16782,5856
7.17518,5543
7.18257,5363
7.18993,5463
7.19732,5414
7.20468,5450
7.21207,6280
7.21945,7027
7.22682,6335
7.2342,5874
7.24157,5898
7.24895,5040
7.25633,5103
7.2637,5344
7.27108,5243
7.27845,5318
7.28583,5210
7.2932,5141
7.30058,5399
7.30797,5112
7.31533,5248
7.32272,5452
7.33008,5566
7.33747,5483
7.34483,5077
7.35222,5145
7.3596,4786
7.36697,5054
7.37435,5037
7.38172,5039
7.3891,4818
7.39648,5361
7.40385,5390
7.41123,5547
7.4186,5083
7.42598,4937
7.43335,5600
7.44073,5297
7.44812,5500
7.45548,4981
7.46287,5099
7.47023,5398
7.47762,6511
7.485,7003
7.49237,6077
7.49975,4949
7.50712,4944
7.5145,4592
7.52187,4704
7.52925,5061
7.53663,4795
7.544,4263
7.55138,4498
7.55875,4442
7.56613,4425
7.57352,4610
7.58088,4429
7.58827,4371
7.59563,4689
7.60302,4358
7.61038,4533
7.61777,4205
7.62515,4584
7.63252,4474
7.6399,4581
7.64727,4735
7.65465,4458
7.66203,4615
7.6694,4699
7.67678,4496
7.68415,4225
7.69153,4754
7.6989,4156
7.70628,4325
7.71367,4402
7.72103,4413
7.72842,4452
7.73578,4490
7.74317,4448
7.75055,4573
7.75792,4244
7.7653,4488
7.77267,4174
7.78005,4380
7.78742,4793
7.7948,4323
7.80218,4693
7.80955,4372
7.81693,4473
7.8243,4543
7.83168,4804
7.83907,4386
7.84643,4444
7.85382,4496
7.86118,4518
7.86857,4360
7.87593,4494
7.88332,4389
7.8907,4495
7.89807,4440
7.90545,4679
7.91282,4769
7.9202,4803
7.92757,4587
7.93495,4453
7.94233,5302
7.9497,5026
7.95708,4709
7.96445,4847
7.97183,4696
7.97922,4780
7.98658,4630
7.99397,4549
8.00133,4283
8.00872,4520
8.01608,4708
8.02347,4376
8.03085,4794
8.03822,4455
8.0456,4599
8.05297,4590
8.06035,4541
8.06773,4467
8.0751,4629
8.08248,4632
8.08985,4345
8.09723,4337
8.1046,4950
8.11198,5971
8.11937,5836
8.12673,5077
8.13412,4714
8.14148,4471
8.14887,4595
8.15625,4761
8.16362,5026
8.171,5173
8.17837,5177
8.18575,5174
8.19312,5041
8.2005,5753
8.20788,5533
8.21525,4976
8.22263,4848
8.23,5161
8.23738,5061
8.24477,5288
8.25213,6630
8.25952,8285
8.26688,8578
8.27427,6681
8.28163,5321
8.28902,4875
8.2964,5088
8.30377,4750
8.31115,4937
8.31852,4795
8.3259,4753
8.33328,5145
8.34065,4742
8.34803,4931
8.3554,5089
8.36278,4733
8.37015,5055
8.37753,4856
8.38492,4844
8.39228,4935
8.39967,4614
8.40703,4690
8.41442,4693
8.4218,4894
8.42917,4670
8.43655,4803
8.44392,4723
8.4513,4598
8.45867,4898
8.46605,4815
8.47343,4818
8.4808,4728
8.48818,4685
8.49555,4868
8.50293,4832
8.51032,4585
8.51768,4540
8.52507,4892
8.53243,5406
8.53982,4745
8.54718,5077
8.55457,4549
8.56195,4305
8.56932,4651
8.5767,4519
8.58407,4495
8.59145,4724
8.59882,4821
8.6062,4678
8.61358,4677
8.62095,4653
8.62833,4533
8.6357,4732
8.64308,4597
8.65047,4588
8.65783,4544
8.66522,4810
8.67258,5097
8.67997,4590
8.68733,4806
8.69472,4830
8.7021,4758
8.70947,4580
8.71685,4581
8.72422,4306
8.7316,4606
8.73898,5166
8.74635,6384
8.75373,7248
8.7611,7119
8.76848,6846
8.77585,6768
8.78323,6392
8.79062,6385
8.79798,6287
8.80537,6033
8.81273,5655
8.82012,5964
8.8275,5953
8.83487,6274
8.84225,5669
8.84962,5593
8.857,5327
8.86437,5461
8.87175,5097
8.87913,5505
8.8865,5630
8.89388,5851
8.90125,5720
8.90863,5587
8.91602,5432
8.92338,5076
8.93077,5592
8.93813,5928
8.94552,5784
8.95288,5451
8.96027,5377
8.96765,5631
8.97502,5213
8.9824,5143
8.98977,4957
8.99715,5186
9.00453,5177
9.0119,5627
9.01928,5672
9.02665,5601
9.03403,5403
9.0414,5536
9.04878,6192
9.05617,6760
9.06353,6254
9.07092,7023
9.07828,8508
9.08567,11565
9.09305,12769
9.10042,11296
9.1078,10368
9.11517,10541
9.12255,10304
9.12992,10103
9.1373,10511
9.14468,8250
9.15205,6926
9.15943,7234
9.1668,9111
9.17418,10130
9.18155,9141
9.18893,7850
9.19632,6223
9.20368,5655
9.21107,5404
9.21843,5412
9.22582,5301
9.2332,5417
9.24057,5696
9.24795,6374
9.25532,6721
9.2627,7647
9.27007,6661
9.27745,5717
9.28483,5085
9.2922,5089
9.29958,5101
9.30695,5291
9.31433,5399
9.32172,5596
9.32908,5541
9.33647,6590
9.34383,7257
9.35122,5938
9.35858,5432
9.36597,5559
9.37335,5284
9.38072,5575
9.3881,5163
9.39547,5427
9.40285,5826
9.41023,6472
9.4176,6645
9.42498,5837
9.43235,5470
9.43973,5299
9.4471,5094
9.45448,5196
9.46187,5358
9.46923,5129
9.47662,5189
9.48398,5236
9.49137,5290
9.49875,5296
9.50612,5548
9.5135,5157
9.52087,5275
9.52825,5338
9.53562,5452
9.543,5286
9.55038,5283
9.55775,5259
9.56513,5198
9.5725,5056
9.57988,5004
9.58727,5549
9.59463,5575
9.60202,5776
9.60938,5432
9.61677,5686
9.62413,5598
9.63152,5620
9.6389,5876
9.64627,5760
9.65365,5761
9.66102,5181
9.6684,5328
9.67578,5708
9.68315,5485
9.69053,5486
9.6979,5914
9.70528,6539
9.71265,6905
9.72003,6455
9.72742,5740
9.73478,5595
9.74217,5132
9.74953,5471
9.75692,5581
9.76428,5255
9.77167,5480
9.77905,5665
9.78642,5737
9.7938,5938
9.80117,6230
9.80855,6035
9.81593,6326
9.8233,5818
9.83068,5815
9.83805,6309
9.84543,5812
9.8528,5203
9.86018,5446
9.86757,5479
9.87493,5456
9.88232,5661
9.88968,5831
9.89707,5830
9.90445,5666
9.91182,5419
9.9192,5291
9.92657,5155
9.93395,5850
9.94132,6004
9.9487,5842
9.95608,5602
9.96345,5282
9.97083,5454
9.9782,5263
9.98558,5362
9.99297,6347
10.0003,12560
10.0077,27939
10.0151,36114
10.0225,24622
10.0298,13554
10.0372,9094
10.0446,7842
10.052,7318
10.0594,6882
10.0667,7828
10.0741,10256
10.0815,10064
10.0889,8375
10.0962,6309
10.1036,6064
10.111,6039
10.1184,5950
10.1257,6300
10.1331,6165
10.1405,5684
10.1479,6631
10.1552,7207
10.1626,7861
10.17,7622
10.1774,7365
10.1848,7092
10.1921,7019
10.1995,6402
10.2069,6186
10.2143,6006
10.2216,5654
10.229,5883
10.2364,5695
10.2438,5937
10.2511,5588
10.2585,5462
10.2659,5729
10.2733,5582
10.2806,6043
10.288,5782
10.2954,5954
10.3028,6028
10.3102,6197
10.3175,5737
10.3249,5646
10.3323,5739
10.3397,5678
10.347,5918
10.3544,5687
10.3618,5589
10.3692,5244
10.3765,5924
10.3839,5875
10.3913,5981
10.3987,5860
10.406,5580
10.4134,5664
10.4208,5785
10.4282,6039
10.4355,6063
10.4429,5983
10.4503,6737
10.4577,7688
10.4651,7300
10.4724,6168
10.4798,5734
10.4872,5562
10.4946,5944
10.5019,6514
10.5093,6168
10.5167,5878
10.5241,5962
10.5314,5746
10.5388,5869
10.5462,5868
10.5536,6286
10.5609,6228
10.5683,5723
10.5757,5691
10.5831,5616
10.5905,5627
10.5978,6219
10.6052,7295
10.6126,9321
10.62,9647
10.6273,7570
10.6347,6036
10.6421,5253
10.6495,5719
10.6568,5178
10.6642,5590
10.6716,5461
10.679,5451
10.6863,5583
10.6937,5649
10.7011,5481
10.7085,6065
10.7159,6909
10.7232,7479
10.7306,6693
10.738,6211
10.7454,6198
10.7527,6064
10.7601,5838
10.7675,5697
10.7749,5939
10.7822,5581
10.7896,6198
10.797,5338
10.8044,6168
10.8117,5711
10.8191,5243
10.8265,5043
10.8339,5115
10.8413,4971
10.8486,5331
10.856,5448
10.8634,6224
10.8708,7485
10.8781,9004
10.8855,7537
10.8929,6400
10.9003,6039
10.9076,5793
10.915,6184
10.9224,7478
10.9298,9111
10.9371,9983
10.9445,7778
10.9519,6071
10.9593,5421
10.9666,5864
10.974,5089
10.9814,5360
10.9888,5191
10.9962,5407
11.0035,7029
11.0109,9665
11.0183,8397
11.0257,6767
11.033,6516
11.0404,6847
11.0478,6046
11.0552,6014
11.0625,5793
11.0699,5783
11.0773,6093
11.0847,6354
11.092,6094
11.0994,5610
11.1068,5301
11.1142,5778
11.1216,5864
11.1289,5531
11.1363,5924
11.1437,5364
11.1511,5633
11.1584,5638
11.1658,5475
11.1732,5614
11.1806,6817
11.1879,6917
11.1953,6248
11.2027,6458
11.2101,6803
11.2174,8584
11.2248,8549
11.2322,7668
11.2396,6256
11.247,5866
11.2543,5988
11.2617,5843
11.2691,5320
11.2765,6276
11.2838,6388
11.2912,6005
11.2986,5783
11.306,5735
11.3133,6003
11.3207,5690
11.3281,5638
11.3355,5327
11.3428,5955
11.3502,5973
11.3576,5666
11.365,5532
11.3723,4891
11.3797,5272
11.3871,5592
11.3945,6005
11.4019,6234
11.4092,5524
11.4166,6304
11.424,6328
11.4314,6234
11.4387,5866
11.4461,6010
11.4535,5859
11.4609,5745
11.4682,5443
11.4756,6915
11.483,6961
11.4904,6311
11.4977,6271
11.5051,5949
11.5125,5741
11.5199,5853
11.5273,6163
11.5346,6119
11.542,5807
11.5494,5459
11.5568,5633
11.5641,5585
11.5715,5663
11.5789,6490
11.5863,6304
11.5936,5918
11.601,5876
11.6084,5661
11.6158,5972
11.6231,6187
11.6305,5930
11.6379,5890
11.6453,5259
11.6527,5709
11.66,5706
11.6674,5535
11.6748,6383
11.6822,8731
11.6895,9586
11.6969,8133
11.7043,6439
11.7117,7102
11.719,6398
11.7264,6314
11.7338,7019
11.7412,7902
11.7485,8721
11.7559,8065
11.7633,8148
11.7707,7318
11.778,6912
11.7854,7146
11.7928,6669
11.8002,7524
11.8076,7223
11.8149,6621
11.8223,6701
11.8297,6942
11.8371,6607
11.8444,6351
11.8518,6134
11.8592,7033
11.8666,7301
11.8739,6655
11.8813,6721
11.8887,5999
11.8961,6731
11.9034,6555
11.9108,6353
11.9182,6260
11.9256,6639
11.933,7400
11.9403,7838
11.9477,8141
11.9551,6749
11.9625,6398
11.9698,6152
11.9772,6208
11.9846,5605
11.992,6833
11.9993,7807
12.0067,7922
12.0141,7920
12.0215,7849
12.0288,7974
12.0362,7535
12.0436,7325
12.051,7469
12.0584,7592
12.0657,7189
12.0731,7281
12.0805,6927
12.0879,6769
12.0952,7218
12.1026,7786
12.11,7722
12.1174,8690
12.1247,6779
12.1321,7260
12.1395,8064
12.1469,8081
12.1542,8837
12.1616,8810
12.169,8154
12.1764,8056
12.1837,8027
12.1911,7874
12.1985,7390
12.2059,7032
12.2133,7496
12.2206,7123
12.228,7153
12.2354,6553
12.2428,7013
12.2501,6774
12.2575,6769
12.2649,7594
12.2723,9151
12.2796,9769
12.287,10144
12.2944,9855
12.3018,9478
12.3091,8630
12.3165,9061
12.3239,8571
12.3313,8870
12.3387,9848
12.346,11679
12.3534,12592
12.3608,11595
12.3682,9732
12.3755,9588
12.3829,9264
12.3903,9523
12.3977,9624
12.405,10443
12.4124,10717
12.4198,10755
12.4272,10503
12.4345,9754
12.4419,9126
12.4493,8940
12.4567,9752
12.4641,9886
12.4714,9716
12.4788,9303
12.4862,9632
12.4936,9511
12.5009,9360
12.5083,10513
12.5157,14144
12.5231,13495
12.5304,11466
12.5378,11320
12.5452,11654
12.5526,11550
12.5599,10175
12.5673,9526
12.5747,9421
12.5821,9659
12.5895,9061
12.5968,10437
12.6042,10281
12.6116,9637
12.619,8429
12.6263,8426
12.6337,9155
12.6411,9782
12.6485,10243
12.6558,10232
12.6632,9687
12.6706,9276
12.678,8669
12.6853,8627
12.6927,8510
12.7001,8448
12.7075,8411
12.7148,9257
12.7222,9797
12.7296,9296
12.737,9034
12.7444,8826
12.7517,9596
12.7591,8785
12.7665,8447
12.7739,9606
12.7812,8905
12.7886,9031
12.796,10160
12.8034,9187
12.8107,10673
12.8181,10610
12.8255,10780
12.8329,9698
12.8402,11649
12.8476,10171
12.855,10110
12.8624,10165
12.8698,9776
12.8771,11140
12.8845,12190
12.8919,12302
12.8993,12605
12.9066,12869
12.914,12975
12.9214,13783
12.9288,13201
12.9361,12414
12.9435,13177
12.9509,11860
12.9583,11070
12.9656,10285
12.973,10889
12.9804,10978
12.9878,10529
12.9952,9798
13.0025,10817
13.0099,11520
13.0173,9616
13.0247,11082
13.032,10548
13.0394,9885
13.0468,9850
13.0542,11134
13.0615,9852
13.0689,10704
13.0763,10238
13.0837,10114
13.091,9353
13.0984,9965
13.1058,12466
13.1132,14027
13.1205,14062
13.1279,14227
13.1353,14235
13.1427,13167
13.1501,13644
13.1574,14111
13.1648,14764
13.1722,14275
13.1796,13782
13.1869,13896
13.1943,15068
13.2017,15207
13.2091,15450
13.2164,15022
13.2238,15376
13.2312,14129
13.2386,15818
13.2459,18178
13.2533,17632
13.2607,15762
13.2681,15250
13.2755,15413
13.2828,14933
13.2902,15379
13.2976,19148
13.305,17924
13.3123,15702
13.3197,14080
13.3271,14500
13.3345,14741
13.3418,14703
13.3492,14016
13.3566,13857
13.364,13274
13.3713,13856
13.3787,14516
13.3861,14629
13.3935,15179
13.4009,16631
13.4082,16019
13.4156,14388
13.423,14596
13.4304,14812
13.4377,14212
13.4451,13738
13.4525,13845
13.4599,14615
13.4672,15838
13.4746,15515
13.482,15100
13.4894,15822
13.4967,15755
13.5041,16660
13.5115,15470
13.5189,16296
13.5262,14882
13.5336,15647
13.541,15146
13.5484,15205
13.5558,15200
13.5631,15780
13.5705,14459
13.5779,15763
13.5853,16453
13.5926,15789
13.6,16360
13.6074,16228
13.6148,16197
13.6221,15580
13.6295,15527
13.6369,15858
13.6443,15497
13.6516,15301
13.659,16562
13.6664,17109
13.6738,17266
13.6812,15699
13.6885,16286
13.6959,16447
13.7033,17165
13.7107,17563
13.718,17544
13.7254,17841
13.7328,17070
13.7402,18613
13.7475,19682
13.7549,18906
13.7623,18629
13.7697,19034
13.777,18960
13.7844,18224
13.7918,18197
13.7992,18406
13.8066,17593
13.8139,19337
13.8213,19889
13.8287,18658
13.8361,18499
13.8434,17455
13.8508,17821
13.8582,17472
13.8656,17578
13.8729,17646
13.8803,19266
13.8877,18302
13.8951,18309
13.9024,17860
13.9098,17288
13.9172,17885
13.9246,17890
13.9319,19264
13.9393,22153
13.9467,22682
13.9541,19509
13.9615,19195
13.9688,18858
13.9762,19006
13.9836,19586
13.991,19243
13.9983,19590
14.0057,19271
14.0131,18455
14.0205,19181
14.0278,19831
14.0352,18910
14.0426,19882
14.05,19693
14.0573,20774
14.0647,19850
14.0721,19044
14.0795,20305
14.0869,21094
14.0942,21134
14.1016,20335
14.109,19336
14.1164,17538
14.1237,18125
14.1311,20448
14.1385,19398
14.1459,19150
14.1532,19369
14.1606,19702
14.168,18435
14.1754,18955
14.1827,22092
14.1901,21561
14.1975,20328
14.2049,20077
14.2123,20474
14.2196,21592
14.227,22436
14.2344,22308
14.2418,21854
14.2491,21432
14.2565,21424
14.2639,21734
14.2713,21692
14.2786,21761
14.286,21525
14.2934,21322
14.3008,22107
14.3081,22617
14.3155,21561
14.3229,24287
14.3303,25410
14.3377,24071
14.345,22852
14.3524,25012
14.3598,24709
14.3672,25986
14.3745,25011
14.3819,24688
14.3893,23249
14.3967,24619
14.404,25287
14.4114,23708
14.4188,24719
14.4262,24189
14.4335,24647
14.4409,23977
14.4483,24854
14.4557,24903
14.463,23976
14.4704,23245
14.4778,24978
14.4852,24572
14.4926,22741
14.4999,23029
14.5073,23377
14.5147,24195
14.5221,24493
14.5294,23497
14.5368,24296
14.5442,24003
14.5516,24802
14.5589,26424
14.5663,25410
14.5737,27064
14.5811,28553
14.5884,26805
14.5958,24943
14.6032,23818
14.6106,24648
14.618,25966
14.6253,25216
14.6327,25176
14.6401,24755
14.6475,24894
14.6548,25135
14.6622,25393
14.6696,25884
14.677,25737
14.6843,24022
14.6917,26755
14.6991,26673
14.7065,26565
14.7138,25431
14.7212,25748
14.7286,25611
14.736,25964
14.7434,27667
14.7507,26635
14.7581,26747
14.7655,27501
14.7729,28080
14.7802,26583
14.7876,28130
14.795,30790
14.8024,28532
14.8097,29830
14.8171,26530
14.8245,28940
14.8319,31908
14.8392,31848
14.8466,33011
14.854,35138
14.8614,35943
14.8687,41529
14.8761,38563
14.8835,35194
14.8909,39706
14.8983,37990
14.9056,35827
14.913,36765
14.9204,39916
14.9278,36483
14.9351,35914
14.9425,36940
14.9499,33397
14.9573,34145
14.9646,34270
14.972,32356
14.9794,33767
14.9868,31438
14.9941,31136
15.0015,28170
15.0089,28150
15.0163,28315
15.0237,27971
15.031,28998
15.0384,28505
15.0458,28492
15.0532,31385
15.0605,31456
15.0679,32368
15.0753,31415
15.0827,30914
15.09,30331
15.0974,32017
15.1048,32009
15.1122,29716
15.1195,31733
15.1269,31323
15.1343,35676
15.1417,34377
15.1491,28667
15.1564,28215
15.1638,29581
15.1712,29278
15.1786,31285
15.1859,30776
15.1933,30050
15.2007,31257
15.2081,31439
15.2154,32247
15.2228,33571
15.2302,32697
15.2376,35439
15.2449,33930
15.2523,35102
15.2597,34077
15.2671,34099
15.2744,35980
15.2818,36007
15.2892,35967
15.2966,34041
15.304,37486
15.3113,36923
15.3187,36796
15.3261,40751
15.3335,43191
15.3408,42679
15.3482,42659
15.3556,43412
15.363,47071
15.3703,44419
15.3777,44851
15.3851,41482
15.3925,45471
15.3998,44264
15.4072,42801
15.4146,39907
15.422,39340
15.4294,37729
15.4367,38602
15.4441,35248
15.4515,34015
15.4589,33678
15.4662,33507
15.4736,37594
15.481,33891
15.4884,34934
15.4957,36045
15.5031,36066
15.5105,34562
15.5179,36747
15.5252,37204
15.5326,37662
15.54,37094
15.5474,38365
15.5548,37811
15.5621,36543
15.5695,36597
15.5769,36767
15.5843,34407
15.5916,35300
15.599,39204
15.6064,37418
15.6138,38948
15.6211,41472
15.6285,43259
15.6359,45609
15.6433,42273
15.6506,40356
15.658,42887
15.6654,43947
15.6728,44102
15.6801,45097
15.6875,43422
15.6949,43962
15.7023,39741
15.7097,39254
15.717,39421
15.7244,38706
15.7318,36905
15.7392,37474
15.7465,37111
15.7539,38849
15.7613,40506
15.7687,42194
15.776,40925
15.7834,43750
15.7908,43230
15.7982,43450
15.8055,45414
15.8129,44188
15.8203,42969
15.8277,41479
15.8351,38119
15.8424,36769
15.8498,37483
15.8572,35989
15.8646,36781
15.8719,35353
15.8793,37359
15.8867,39978
15.8941,40086
15.9014,41363
15.9088,41684
15.9162,42949
15.9236,41441
15.9309,45283
15.9383,45180
15.9457,43025
15.9531,41612
15.9605,38569
15.9678,38279
15.9752,37650
15.9826,37553
15.99,38192
15.9973,39014
16.0047,40006
16.0121,40687
16.0194,39926
16.0268,43158
16.0342,42000
16.0416,44296
16.049,43962
16.0563,44198
16.0637,46306
16.0711,50297
16.0785,55206
16.0859,50555
16.0932,44492
16.1006,42752
16.108,39082
16.1153,39493
16.1227,36777
16.1301,35125
16.1375,36421
16.1449,36203
16.1522,35580
16.1596,35730
16.167,36422
16.1744,35542
16.1817,35257
16.1891,37729
16.1965,40639
16.2039,41908
16.2112,41348
16.2186,37881
16.226,35984
16.2334,35939
16.2407,31784
16.2481,32716
16.2555,28975
16.2629,30886
16.2703,30215
16.2776,29600
16.285,31111
16.2924,30890
16.2998,33941
16.3071,36404
16.3145,37839
16.3219,38909
16.3293,40897
16.3366,38343
16.344,38659
16.3514,37622
16.3588,45207
16.3662,48749
16.3735,48843
16.3809,45702
16.3883,43909
16.3957,40222
16.403,38248
16.4104,37725
16.4178,36633
16.4251,36610
16.4325,34295
16.4399,33374
16.4473,31504
16.4547,32323
16.462,35849
16.4694,39091
16.4768,41333
16.4842,38426
16.4916,40894
16.4989,40908
16.5063,40900
16.5137,37905
16.521,37364
16.5284,41659
16.5358,37545
16.5432,33424
16.5506,35021
16.5579,35921
16.5653,33070
16.5727,32407
16.5801,29258
16.5874,26207
16.5948,26187
16.6022,25731
16.6096,25929
16.6169,29848
16.6243,28931
16.6317,31491
16.6391,30033
16.6465,32759
16.6538,32340
16.6612,39219
16.6686,41126
16.676,37946
16.6833,35630
16.6907,36773
16.6981,38337
16.7054,35379
16.7128,33195
16.7202,38485
16.7276,34290
16.735,27906
16.7423,27157
16.7497,28523
16.7571,24795
16.7645,24978
16.7719,24951
16.7792,26027
16.7866,32580
16.794,33538
16.8013,34123
16.8087,32028
16.8161,33916
16.8235,32478
16.8309,32283
16.8382,32288
16.8456,33129
16.853,31356
16.8604,35803
16.8677,36647
16.8751,32671
16.8825,35565
16.8899,31270
16.8973,28445
16.9046,26241
16.912,25693
16.9194,24947
16.9267,24206
16.9341,23254
16.9415,22352
16.9489,24064
16.9563,22441
16.9636,21989
16.971,21819
16.9784,22646
16.9858,22778
16.9931,25960
17.0005,26664
17.0079,27307
17.0153,26259
17.0226,28525
17.03,29746
17.0374,29534
17.0448,31082
17.0522,31580
17.0595,30587
17.0669,30204
17.0743,31565
17.0817,31446
17.089,31303
17.0964,32606
17.1038,31276
17.1111,30154
17.1185,28098
17.1259,26867
17.1333,26638
17.1407,25366
17.148,24452
17.1554,23249
17.1628,23462
17.1702,22595
17.1776,23790
17.1849,23499
17.1923,24871
17.1997,25426
17.207,24571
17.2144,24716
17.2218,26444
17.2292,27144
17.2366,27990
17.2439,27439
17.2513,28113
17.2587,28972
17.2661,27078
17.2734,26570
17.2808,27466
17.2882,27140
17.2956,27129
17.3029,28369
17.3103,29205
17.3177,26879
17.3251,26526
17.3325,24924
17.3398,25349
17.3472,23906
17.3546,23192
17.362,21764
17.3693,21815
17.3767,21996
17.3841,21153
17.3915,21348
17.3988,24320
17.4062,26782
17.4136,24390
17.421,22205
17.4283,21018
17.4357,23351
17.4431,22853
17.4505,23357
17.4579,28263
17.4652,32768
17.4726,30253
17.48,31855
17.4873,32828
