D:\Data GC-MS\2021\9 SEPTEMBER\12-09-21\BLANK SPME 46291-21-1 YKK.D 12 Sep 21  09:09 am
Start of data points
1.29378,1979
1.30053,1985
1.30728,2007
1.31402,2040
1.32077,2046
1.3275,2100
1.33425,1994
1.34098,2201
1.34773,2056
1.35447,2145
1.36122,2079
1.36797,1895
1.3747,2026
1.38145,2060
1.38818,2020
1.39493,2104
1.40167,2029
1.40842,2064
1.41517,2120
1.4219,2113
1.42865,2092
1.43538,2013
1.44213,2146
1.44887,2048
1.45562,2060
1.46237,2126
1.4691,2179
1.47585,2231
1.48258,2172
1.48933,2167
1.5102,6908
1.51757,6584
1.52495,6628
1.53232,6771
1.5397,6773
1.54707,6383
1.55445,6562
1.56183,6757
1.5692,7052
1.57658,6749
1.58395,6691
1.59133,6976
1.59872,7237
1.60608,6699
1.61347,7204
1.62083,6818
1.62822,6470
1.63558,7277
1.64297,7055
1.65035,6724
1.65772,6823
1.6651,6927
1.67247,6978
1.67985,6625
1.68722,6836
1.6946,7204
1.70198,7456
1.70935,6974
1.71673,7215
1.7241,7077
1.73148,7125
1.73887,7092
1.74623,6838
1.75362,7298
1.76098,7210
1.76837,7436
1.77573,7067
1.78312,6950
1.7905,7504
1.79787,7200
1.80525,7478
1.81262,7129
1.82,7074
1.82738,7159
1.83475,7131
1.84213,7222
1.8495,7207
1.85688,7165
1.86425,7227
1.87163,7344
1.87902,7447
1.88638,7122
1.89377,7291
1.90113,7344
1.90852,7416
1.9159,7400
1.92327,7428
1.93065,7648
1.93802,7362
1.9454,7483
1.95277,7299
1.96015,7549
1.96753,7355
1.9749,7376
1.98228,7568
1.98965,7635
1.99703,7325
2.00442,7221
2.01178,7488
2.01917,7504
2.02653,7276
2.03392,7311
2.04128,7561
2.04867,7594
2.05605,7651
2.06342,7156
2.0708,7963
2.07817,7657
2.08555,7106
2.09293,7709
2.1003,7055
2.10768,7144
2.11505,7467
2.12243,7415
2.1298,7498
2.13718,7350
2.14457,7732
2.15193,7377
2.15932,7202
2.16668,7322
2.17407,7307
2.18145,7484
2.18882,7523
2.1962,7272
2.20357,7731
2.21095,7545
2.21832,7346
2.2257,7302
2.23308,7404
2.24045,7374
2.24783,7479
2.2552,7371
2.26258,7143
2.26995,7555
2.27733,7179
2.28472,7524
2.29208,7743
2.29947,7717
2.30683,7549
2.31422,8037
2.3216,7587
2.32897,7775
2.33635,7806
2.34372,7436
2.3511,7596
2.35847,7964
2.36585,7986
2.37323,7743
2.3806,7629
2.38798,7910
2.39535,7576
2.40273,7889
2.41012,7693
2.41748,7890
2.42487,7669
2.43223,7724
2.43962,7670
2.44698,7813
2.45437,7633
2.46175,7548
2.46912,7410
2.4765,7597
2.48387,7863
2.49125,7381
2.49863,7593
2.506,7097
2.51338,7420
2.52075,7541
2.52813,7787
2.5355,7429
2.54288,7331
2.55027,7742
2.55763,7549
2.56502,7150
2.57238,7256
2.57977,7349
2.58715,7868
2.59452,7373
2.6019,7241
2.60927,7432
2.61665,7307
2.62402,7129
2.6314,7022
2.63878,7602
2.64615,7713
2.65353,7526
2.6609,7584
2.66828,7487
2.67567,7603
2.68303,7367
2.69042,7216
2.69778,7752
2.70517,7341
2.71253,7243
2.71992,7341
2.7273,7742
2.73467,7942
2.74205,7538
2.74942,7267
2.7568,7246
2.76418,7565
2.77155,7226
2.77893,7864
2.7863,7323
2.79368,7206
2.80105,7337
2.80843,7589
2.81582,7074
2.82318,7086
2.83057,7295
2.83793,8022
2.84532,8273
2.85268,8252
2.86007,8039
2.86745,8238
2.87482,8283
2.8822,8138
2.88957,7958
2.89695,7554
2.90433,7952
2.9117,7917
2.91908,7643
2.92645,7803
2.93383,7704
2.9412,7989
2.94858,7616
2.95597,7593
2.96333,7689
2.97072,7414
2.97808,7342
2.98547,7390
2.99285,7387
3.00022,7250
3.0076,7360
3.01497,7113
3.02235,7393
3.02972,7623
3.0371,7246
3.04448,7323
3.05185,7421
3.05923,7355
3.0666,7542
3.07398,7376
3.08137,7481
3.08873,7364
3.09612,6799
3.10348,7098
3.11087,7151
3.11823,7448
3.12562,7467
3.133,7449
3.14037,7642
3.14775,7277
3.15512,7272
3.1625,7879
3.16988,8074
3.17725,7672
3.18463,8138
3.192,7799
3.19938,7422
3.20675,7906
3.21413,7992
3.22152,8024
3.22888,7997
3.23627,7662
3.24363,8189
3.25102,7696
3.2584,7838
3.26577,7563
3.27315,7902
3.28052,7684
3.2879,8052
3.29527,7730
3.30265,7747
3.31003,7835
3.3174,7912
3.32478,7761
3.33215,7914
3.33953,7838
3.34692,7707
3.35428,7822
3.36167,7956
3.36903,8156
3.37642,7739
3.38378,8132
3.39117,7853
3.39855,7820
3.40592,7387
3.4133,7608
3.42067,7677
3.42805,7761
3.43542,8030
3.4428,7980
3.45018,7736
3.45755,7577
3.46493,7756
3.4723,7653
3.47968,7906
3.48707,7472
3.49443,7882
3.50182,7753
3.50918,7931
3.51657,7879
3.52393,7873
3.53132,7675
3.5387,7328
3.54607,7791
3.55345,7859
3.56082,7678
3.5682,7873
3.57558,7387
3.58295,7588
3.59033,7889
3.5977,7993
3.60508,7426
3.61245,7577
3.61983,7763
3.62722,7808
3.63458,7882
3.64197,7966
3.64933,8096
3.65672,7850
3.6641,7874
3.67147,8166
3.67885,7869
3.68622,8236
3.6936,8078
3.70097,7411
3.70835,7740
3.71573,7976
3.7231,7533
3.73048,7646
3.73785,7708
3.74523,7879
3.75262,7365
3.75998,8049
3.76737,7973
3.77473,7813
3.78212,7870
3.78948,7711
3.79687,7768
3.80425,7976
3.81162,8305
3.819,8275
3.82637,8169
3.83375,8239
3.84113,8079
3.8485,8105
3.85588,8483
3.86325,8499
3.87063,8060
3.878,8109
3.88538,8094
3.89277,8167
3.90013,7949
3.90752,7905
3.91488,7597
3.92227,7887
3.92965,7906
3.93702,8221
3.9444,8599
3.95177,8378
3.95915,7987
3.96652,7742
3.9739,8247
3.98128,7802
3.98865,8288
3.99603,7813
4.0034,8079
4.01078,7924
4.01815,7783
4.02553,8052
4.03292,7567
4.04028,8193
4.04767,8049
4.05503,8097
4.06242,7833
4.0698,7989
4.07717,7374
4.08455,8077
4.09192,8534
4.0993,8104
4.10667,8447
4.11405,8079
4.12143,7854
4.1288,7930
4.13618,8257
4.14355,7915
4.15093,8123
4.15832,8119
4.16568,7645
4.17307,8047
4.18043,8184
4.18782,7594
4.19518,7500
4.20257,7809
4.20995,7876
4.21732,7740
4.2247,8170
4.23207,7858
4.23945,8039
4.24683,7714
4.2542,7668
4.26158,7542
4.26895,7980
4.27633,7767
4.2837,7748
4.29108,8137
4.29847,8939
4.30583,9116
4.31322,8294
4.32058,8753
4.32797,8267
4.33535,8730
4.34272,8947
4.3501,8835
4.35747,8880
4.36485,8641
4.37222,9116
4.3796,9026
4.38698,8993
4.39435,8267
4.40173,8404
4.4091,7930
4.41648,8146
4.42387,8333
4.43123,7815
4.43862,8103
4.44598,8142
4.45337,7997
4.46073,7272
4.46812,7826
4.4755,7633
4.48287,7685
4.49025,7588
4.49762,7843
4.505,8771
4.51238,9241
4.51975,8952
4.52713,8791
4.5345,8174
4.54188,7722
4.54925,8022
4.55663,7703
4.56402,7683
4.57138,7114
4.57877,7119
4.58613,7604
4.59352,7294
4.6009,7592
4.60827,7532
4.61565,6960
4.62302,7442
4.6304,7814
4.63777,7845
4.64515,7980
4.65253,8323
4.6599,8129
4.66728,8254
4.67465,7926
4.68203,7526
4.6894,7092
4.69678,7432
4.70417,7953
4.71153,8049
4.71892,8246
4.72628,8274
4.73367,7290
4.74105,7594
4.74842,7338
4.7558,7873
4.76317,7708
4.77055,7352
4.77792,7021
4.7853,7305
4.79268,7511
4.80005,7222
4.80743,7403
4.8148,7679
4.82218,7467
4.82957,7415
4.83693,7364
4.84432,7279
4.85168,7256
4.85907,7212
4.86643,7215
4.87382,7262
4.8812,7486
4.88857,8015
4.89595,7831
4.90332,7947
4.9107,8082
4.91808,7398
4.92545,7333
4.93283,6972
4.9402,7291
4.94758,7281
4.95495,7374
4.96233,7414
4.96972,7300
4.97708,7706
4.98447,7629
4.99183,7277
4.99922,7506
5.0066,7355
5.01397,7176
5.02135,7262
5.02872,7315
5.0361,7485
5.04347,7801
5.05085,10390
5.05823,13396
5.0656,15401
5.07298,15432
5.08035,12389
5.08773,10075
5.09512,9224
5.10248,8969
5.10987,8420
5.11723,8271
5.12462,7805
5.13198,7502
5.13937,7589
5.14675,7920
5.15412,7656
5.1615,7797
5.16887,7245
5.17625,7758
5.18363,7622
5.191,6930
5.19838,7083
5.20575,6934
5.21313,6949
5.2205,7217
5.22788,6976
5.23527,7093
5.24263,7285
5.25002,7100
5.25738,8079
5.26477,10036
5.27213,13657
5.27952,14371
5.2869,13197
5.29427,9735
5.30165,8026
5.30902,7731
5.3164,8178
5.32378,8172
5.33115,7964
5.33853,7933
5.3459,7529
5.35328,7278
5.36065,7224
5.36803,7120
5.37542,6750
5.38278,6850
5.39017,7030
5.39753,7018
5.40492,7172
5.4123,7359
5.41967,7604
5.42705,7138
5.43442,7053
5.4418,7089
5.44917,7043
5.45655,6585
5.46393,6975
5.4713,6971
5.47868,6534
5.48605,6487
5.49343,7103
5.50082,7015
5.50818,6624
5.51557,6889
5.52293,6795
5.53032,7328
5.53768,6939
5.54507,7128
5.55245,6905
5.55982,6863
5.5672,7608
5.57457,7510
5.58195,8048
5.58933,7975
5.5967,7864
5.60408,7429
5.61145,7241
5.61883,6954
5.6262,6636
5.63358,5893
5.64097,6427
5.64833,6889
5.65572,7110
5.66308,6533
5.67047,7121
5.67785,8590
5.68522,9064
5.6926,8424
5.69997,7296
5.70735,6223
5.71472,6929
5.7221,6447
5.72948,6868
5.73685,7293
5.74423,7324
5.7516,6973
5.75898,7084
5.76637,6567
5.77373,6829
5.78112,7329
5.78848,7044
5.79587,6716
5.80323,6741
5.81062,7827
5.818,7755
5.82537,7636
5.83275,8808
5.84012,9475
5.8475,8460
5.85487,8019
5.86225,7760
5.86963,7588
5.877,7356
5.88438,7494
5.89175,7480
5.89913,7161
5.90652,6699
5.91388,6985
5.92127,6487
5.92863,6585
5.93602,6418
5.94338,8327
5.95077,8892
5.95815,8824
5.96552,8711
5.9729,7752
5.98027,7483
5.98765,7142
5.99503,7574
6.0024,7105
6.00978,7082
6.01715,6939
6.02453,6843
6.0319,6605
6.03928,6732
6.04667,6833
6.05403,6355
6.06142,6568
6.06878,7066
6.07617,6200
6.08355,6072
6.09092,6382
6.0983,6424
6.10567,6351
6.11305,6401
6.12042,6720
6.1278,6310
6.13518,5763
6.14255,6065
6.14993,6129
6.1573,5839
6.16468,6410
6.17207,5911
6.17943,5676
6.18682,6191
6.19418,6049
6.20157,6263
6.20893,6518
6.21632,5947
6.2237,6720
6.23107,7080
6.23845,7300
6.24582,7739
6.2532,6784
6.26058,5821
6.26795,5714
6.27533,5827
6.2827,5457
6.29008,6008
6.29745,6388
6.30483,8486
6.31222,7515
6.31958,6567
6.32697,6212
6.33433,6106
6.34172,6245
6.3491,5980
6.35647,6553
6.36385,7554
6.37122,7716
6.3786,6975
6.38597,7269
6.39335,8191
6.40073,7908
6.4081,7380
6.41548,7618
6.42285,7383
6.43023,7353
6.4376,6942
6.44498,7405
6.45237,8315
6.45973,9482
6.46712,9763
6.47448,8544
6.48187,7450
6.48925,7114
6.49662,6958
6.504,7681
6.51137,7524
6.51875,6952
6.52612,6480
6.5335,7122
6.54088,6967
6.54825,6745
6.55563,6524
6.563,5874
6.57038,5663
6.57777,6083
6.58513,7100
6.59252,6499
6.59988,6069
6.60727,5903
6.61463,6289
6.62202,5846
6.6294,6409
6.63677,6440
6.64415,6016
6.65152,6571
6.6589,7271
6.66628,7073
6.67365,6563
6.68103,6194
6.6884,5928
6.69578,5724
6.70315,5623
6.71053,5489
6.71792,6050
6.72528,5782
6.73267,6653
6.74003,8900
6.74742,8053
6.7548,7713
6.76217,7487
6.76955,6992
6.77692,6972
6.7843,6709
6.79167,5866
6.79905,6307
6.80643,6154
6.8138,6175
6.82118,6083
6.82855,6519
6.83593,5990
6.84332,6444
6.85068,8368
6.85807,8339
6.86543,10306
6.87282,12728
6.88018,12129
6.88757,9016
6.89495,7443
6.90232,6775
6.9097,6510
6.91707,6986
6.92445,7935
6.93183,8606
6.9392,7765
6.94658,8954
6.95395,9256
6.96133,9075
6.9687,8644
6.97608,8656
6.98347,8604
6.99083,7869
6.99822,7877
7.00558,8098
7.01297,8096
7.02033,7681
7.02772,8284
7.0351,8102
7.04247,7858
7.04985,7371
7.05722,7281
7.0646,7370
7.07198,8062
7.07935,8448
7.08673,8505
7.0941,8101
7.10148,7052
7.10885,7208
7.11623,7145
7.12362,7671
7.13098,7808
7.13837,6977
7.14573,6721
7.15312,6475
7.1605,6577
7.16787,6534
7.17525,6631
7.18262,6079
7.19,5583
7.19737,6319
7.20475,6395
7.21213,6148
7.2195,6491
7.22688,6432
7.23425,6178
7.24163,5770
7.24902,6425
7.25638,5904
7.26377,6392
7.27113,7093
7.27852,6461
7.28588,6316
7.29327,5921
7.30065,5700
7.30802,5979
7.3154,7170
7.32277,8480
7.33015,10218
7.33753,9807
7.3449,8414
7.35228,8350
7.35965,7151
7.36703,7467
7.3744,6585
7.38178,8046
7.38917,9007
7.39653,9224
7.40392,8638
7.41128,8173
7.41867,7842
7.42605,7637
7.43342,7615
7.4408,7775
7.44817,7304
7.45555,7112
7.46292,6998
7.4703,7035
7.47768,6753
7.48505,6270
7.49243,6540
7.4998,6639
7.50718,5975
7.51457,5648
7.52193,5570
7.52932,5667
7.53668,5761
7.54407,5817
7.55143,5447
7.55882,5969
7.5662,5985
7.57357,5690
7.58095,5311
7.58832,5202
7.5957,5288
7.60307,4894
7.61045,5186
7.61783,5218
7.6252,5298
7.63258,6544
7.63995,6187
7.64733,5928
7.65472,5759
7.66208,5767
7.66947,5884
7.67683,5795
7.68422,5825
7.69158,5494
7.69897,5021
7.70635,5799
7.71372,5757
7.7211,5332
7.72847,5279
7.73585,5088
7.74323,6199
7.7506,6039
7.75798,5287
7.76535,5206
7.77273,5168
7.7801,4965
7.78748,4896
7.79487,5279
7.80223,6059
7.80962,5616
7.81698,5939
7.82437,5606
7.83175,5313
7.83912,4879
7.8465,4883
7.85387,4977
7.86125,6124
7.86862,6774
7.876,6696
7.88338,6687
7.89075,6577
7.89813,6448
7.9055,6338
7.91288,6110
7.92027,6134
7.92763,6228
7.93502,6280
7.94238,6186
7.94977,6352
7.95713,5938
7.96452,5883
7.9719,6325
7.97927,6818
7.98665,6454
7.99402,5680
8.0014,5559
8.00878,5051
8.01615,4958
8.02353,5111
8.0309,5852
8.03828,5817
8.04565,5797
8.05303,5376
8.06042,4893
8.06778,5963
8.07517,6403
8.08253,6349
8.08992,5911
8.0973,5494
8.10467,5172
8.11205,5069
8.11942,5013
8.1268,4721
8.13417,4812
8.14155,5283
8.14893,5835
8.1563,6026
8.16368,5631
8.17105,5078
8.17843,6162
8.1858,7429
8.19318,7678
8.20057,7866
8.20793,7170
8.21532,7203
8.22268,7094
8.23007,6604
8.23745,6340
8.24482,5952
8.2522,5816
8.25957,5772
8.26695,5448
8.27432,6360
8.2817,5579
8.28908,5686
8.29645,5366
8.30383,5866
8.3112,5736
8.31858,4954
8.32597,6571
8.33333,6738
8.34072,6628
8.34808,6382
8.35547,6669
8.36283,6902
8.37022,7165
8.3776,7535
8.38497,6975
8.39235,6505
8.39972,6747
8.4071,5883
8.41448,5437
8.42185,4990
8.42923,5384
8.4366,5284
8.44398,5282
8.45135,5258
8.45873,5014
8.46612,4705
8.47348,5584
8.48087,5744
8.48823,5407
8.49562,5690
8.503,5230
8.51037,5509
8.51775,5158
8.52512,5340
8.5325,5018
8.53987,5066
8.54725,6608
8.55463,7026
8.562,6943
8.56938,7189
8.57675,7478
8.58413,6835
8.59152,7291
8.59888,6918
8.60627,6833
8.61363,6713
8.62102,6637
8.62838,7025
8.63577,7090
8.64315,6893
8.65052,7054
8.6579,7822
8.66527,8018
8.67265,7478
8.68003,6867
8.6874,7269
8.69478,7230
8.70215,7198
8.70953,7437
8.7169,7668
8.72428,7489
8.73167,7454
8.73903,7509
8.74642,7270
8.75378,7449
8.76117,7574
8.76853,7347
8.77592,7300
8.7833,6633
8.79067,6979
8.79805,7319
8.80542,7109
8.8128,7114
8.82018,7192
8.82755,7302
8.83493,7655
8.8423,7329
8.84968,7602
8.85705,7587
8.86443,7683
8.87182,7820
8.87918,8222
8.88657,8650
8.89393,9178
8.90132,9326
8.9087,9533
8.91607,9431
8.92345,9858
8.93082,9434
8.9382,9377
8.94557,9542
8.95295,9556
8.96033,9930
8.9677,10327
8.97508,10244
8.98245,9481
8.98983,9600
8.99722,10206
9.00458,10433
9.01197,10708
9.01933,10418
9.02672,10412
9.03408,10235
9.04147,10005
9.04885,10224
9.05622,10471
9.0636,9842
9.07097,10341
9.07835,9570
9.08573,9877
9.0931,10494
9.10048,12049
9.10785,14629
9.11523,17243
9.1226,15802
9.12998,13851
9.13737,10715
9.14473,8572
9.15212,7017
9.15948,6687
9.16687,6335
9.17425,6193
9.18162,7866
9.189,8849
9.19637,8506
9.20375,8018
9.21112,7487
9.2185,7053
9.22588,6990
9.23325,6578
9.24063,6430
9.248,6202
9.25538,6193
9.26277,6073
9.27013,6291
9.27752,6101
9.28488,5865
9.29227,5442
9.29963,5455
9.30702,5519
9.3144,5245
9.32177,5275
9.32915,5476
9.33652,6246
9.3439,6655
9.35127,6958
9.35865,6169
9.36603,6169
9.3734,5389
9.38078,5713
9.38815,6313
9.39553,6618
9.40292,5988
9.41028,5580
9.41767,5582
9.42503,5080
9.43242,5054
9.43978,5111
9.44717,5494
9.45455,7250
9.46192,7420
9.4693,7429
9.47667,6855
9.48405,7121
9.49143,6481
9.4988,6443
9.50618,6526
9.51355,6495
9.52093,5529
9.5283,5586
9.53568,5145
9.54307,5367
9.55043,5626
9.55782,5404
9.56518,5293
9.57257,5912
9.57995,5511
9.58732,5763
9.5947,5707
9.60207,6195
9.60945,5492
9.61682,5501
9.6242,5383
9.63158,5745
9.63895,6943
9.64633,6242
9.6537,5672
9.66108,6001
9.66847,6024
9.67583,5925
9.68322,5462
9.69058,5264
9.69797,6276
9.70533,7140
9.71272,7272
9.7201,8148
9.72747,8660
9.73485,8166
9.74222,7624
9.7496,7393
9.75698,7335
9.76435,7135
9.77173,7444
9.7791,6992
9.78648,7249
9.79385,8000
9.80123,8289
9.80862,7578
9.81598,7077
9.82337,6429
9.83073,7250
9.83812,7702
9.8455,7180
9.85287,5622
9.86025,5642
9.86762,5554
9.875,6018
9.88237,6144
9.88975,5809
9.89713,5381
9.9045,5385
9.91188,5957
9.91925,5104
9.92663,5901
9.93402,5569
9.94138,5576
9.94877,5360
9.95613,5484
9.96352,5066
9.97088,5297
9.97827,7660
9.98565,7810
9.99302,7081
10.0004,6691
10.0078,6388
10.0152,5915
10.0225,5765
10.0299,6183
10.0373,5965
10.0447,6313
10.052,7929
10.0594,12585
10.0668,12437
10.0742,10791
10.0815,8293
10.0889,6748
10.0963,5620
10.1037,6168
10.111,6470
10.1184,6377
10.1258,7886
10.1332,8992
10.1406,9268
10.1479,9922
10.1553,9682
10.1627,9073
10.1701,8008
10.1774,8256
10.1848,8545
10.1922,8810
10.1996,8606
10.2069,8714
10.2143,8380
10.2217,7829
10.2291,7317
10.2364,7460
10.2438,7881
10.2512,8549
10.2586,7914
10.266,7511
10.2733,7448
10.2807,7013
10.2881,6856
10.2955,7039
10.3028,7278
10.3102,6758
10.3176,6716
10.325,6542
10.3323,6476
10.3397,6264
10.3471,6906
10.3545,6642
10.3618,7158
10.3692,7017
10.3766,6912
10.384,6763
10.3914,6806
10.3987,6702
10.4061,6730
10.4135,6958
10.4209,6872
10.4282,7235
10.4356,6934
10.443,7039
10.4504,6549
10.4577,6904
10.4651,6322
10.4725,6556
10.4799,7063
10.4872,9661
10.4946,9399
10.502,7704
10.5094,7735
10.5168,7482
10.5241,8730
10.5315,8137
10.5389,8314
10.5463,8568
10.5536,8293
10.561,7574
10.5684,9872
10.5758,13275
10.5831,17053
10.5905,20398
10.5979,18904
10.6053,15933
10.6126,17348
10.62,18249
10.6274,12629
10.6348,8338
10.6421,6749
10.6495,6457
10.6569,7050
10.6643,6593
10.6717,7619
10.679,7915
10.6864,7302
10.6938,6991
10.7012,7721
10.7085,11445
10.7159,11106
10.7233,10045
10.7307,9307
10.738,8794
10.7454,8913
10.7528,9105
10.7602,8839
10.7675,8502
10.7749,8134
10.7823,8378
10.7897,7312
10.7971,7036
10.8044,6931
10.8118,6271
10.8192,5893
10.8266,6782
10.8339,6286
10.8413,7305
10.8487,7592
10.8561,7240
10.8634,7565
10.8708,7933
10.8782,7810
10.8856,7595
10.8929,7279
10.9003,6617
10.9077,6680
10.9151,7215
10.9225,9978
10.9298,13722
10.9372,11823
10.9446,9793
10.952,10278
10.9593,10062
10.9667,10101
10.9741,9739
10.9815,9709
10.9888,9324
10.9962,10276
11.0036,10269
11.011,9915
11.0183,9606
11.0257,9794
11.0331,10185
11.0405,10142
11.0478,9979
11.0552,9426
11.0626,9510
11.07,9411
11.0774,8928
11.0847,9279
11.0921,9206
11.0995,8996
11.1069,9367
11.1142,9553
11.1216,8952
11.129,9331
11.1364,9219
11.1437,8895
11.1511,8628
11.1585,9053
11.1659,9398
11.1732,8875
11.1806,8757
11.188,8705
11.1954,8261
11.2028,8269
11.2101,8442
11.2175,9047
11.2249,8483
11.2323,8505
11.2396,8076
11.247,7859
11.2544,8581
11.2618,8228
11.2691,8178
11.2765,8364
11.2839,8558
11.2913,8485
11.2986,8534
11.306,9097
11.3134,8824
11.3208,8809
11.3282,9231
11.3355,8663
11.3429,8638
11.3503,8709
11.3577,8861
11.365,8692
11.3724,8756
11.3798,8430
11.3872,8230
11.3945,9027
11.4019,8747
11.4093,8614
11.4167,8707
11.424,8704
11.4314,8920
11.4388,8618
11.4462,9044
11.4535,10045
11.4609,9740
11.4683,9037
11.4757,9060
11.4831,8436
11.4904,7925
11.4978,8228
11.5052,8161
11.5126,8660
11.5199,8060
11.5273,8007
11.5347,8160
11.5421,8281
11.5494,7928
11.5568,7756
11.5642,8392
11.5716,8269
11.5789,8129
11.5863,7941
11.5937,8098
11.6011,7827
11.6085,7825
11.6158,7706
11.6232,7844
11.6306,7464
11.638,8019
11.6453,7576
11.6527,7472
11.6601,7849
11.6675,8185
11.6748,8460
11.6822,8846
11.6896,8144
11.697,7687
11.7043,7569
11.7117,7507
11.7191,7490
11.7265,7747
11.7339,8139
11.7412,9396
11.7486,10673
11.756,8736
11.7634,7977
11.7707,8010
11.7781,8179
11.7855,7784
11.7929,8378
11.8002,8568
11.8076,8810
11.815,8492
11.8224,7992
11.8297,7102
11.8371,7352
11.8445,7825
11.8519,7424
11.8592,7752
11.8666,7495
11.874,7184
11.8814,7235
11.8888,7365
11.8961,6948
11.9035,7000
11.9109,7742
11.9183,7560
11.9256,8541
11.933,11340
11.9404,12348
11.9478,9766
11.9551,7777
11.9625,7139
11.9699,7049
11.9773,7256
11.9846,7167
11.992,7227
11.9994,6483
12.0068,6884
12.0142,7007
12.0215,7182
12.0289,6953
12.0363,6649
12.0437,6876
12.051,6686
12.0584,6601
12.0658,6615
12.0732,6741
12.0805,6758
12.0879,7103
12.0953,7190
12.1027,6978
12.11,7384
12.1174,7273
12.1248,6914
12.1322,6360
12.1396,6466
12.1469,6975
12.1543,6715
12.1617,6641
12.1691,6683
12.1764,6643
12.1838,6614
12.1912,6333
12.1986,6374
12.2059,6006
12.2133,6360
12.2207,6577
12.2281,6097
12.2354,6573
12.2428,6518
12.2502,6602
12.2576,6403
12.265,6273
12.2723,6410
12.2797,6474
12.2871,6018
12.2945,6160
12.3018,6736
12.3092,6741
12.3166,6291
12.324,6265
12.3313,6865
12.3387,6808
12.3461,6805
12.3535,6964
12.3608,6994
12.3682,6770
12.3756,5977
12.383,5964
12.3903,5960
12.3977,5781
12.4051,5542
12.4125,5813
12.4199,5515
12.4272,6024
12.4346,5459
12.442,5672
12.4494,5405
12.4567,5486
12.4641,5410
12.4715,5778
12.4789,5432
12.4862,5627
12.4936,5369
12.501,5543
12.5084,5454
12.5157,5216
12.5231,5501
12.5305,5287
12.5379,5634
12.5453,5561
12.5526,5544
12.56,5362
12.5674,5451
12.5748,5346
12.5821,5396
12.5895,5070
12.5969,5140
12.6043,5370
12.6116,5100
12.619,5232
12.6264,5361
12.6338,5515
12.6411,5998
12.6485,6204
12.6559,5663
12.6633,5645
12.6707,5420
12.678,5318
12.6854,5678
12.6928,5401
12.7002,5135
12.7075,5185
12.7149,4917
12.7223,4994
12.7297,5675
12.737,5393
12.7444,4999
12.7518,5177
12.7592,4642
12.7665,5051
12.7739,4794
12.7813,5604
12.7887,6013
12.796,6105
12.8034,5659
12.8108,5937
12.8182,5665
12.8256,5584
12.8329,5351
12.8403,5088
12.8477,5133
12.8551,5132
12.8624,5646
12.8698,4880
12.8772,4911
12.8846,4977
12.8919,5462
12.8993,6151
12.9067,5723
12.9141,5268
12.9214,5414
12.9288,5450
12.9362,5189
12.9436,5332
12.951,5697
12.9583,5501
12.9657,6448
12.9731,6403
12.9805,5707
12.9878,5789
12.9952,5351
13.0026,5396
13.01,4998
13.0173,5403
13.0247,4911
13.0321,4714
13.0395,5143
13.0468,5032
13.0542,5045
13.0616,5274
13.069,6386
13.0764,8742
13.0837,9024
13.0911,6459
13.0985,5357
13.1059,4941
13.1132,4673
13.1206,4842
13.128,5855
13.1354,5330
13.1427,4876
13.1501,4863
13.1575,4781
13.1649,5605
13.1722,5250
13.1796,5345
13.187,6427
13.1944,6432
13.2017,5553
13.2091,5411
13.2165,5576
13.2239,5113
13.2313,4874
13.2386,5191
13.246,5032
13.2534,6225
13.2608,6835
13.2681,6950
13.2755,6451
13.2829,6884
13.2903,7279
13.2976,7195
13.305,6996
13.3124,6869
13.3198,6679
13.3271,6592
13.3345,6804
13.3419,6724
13.3493,6788
13.3567,6439
13.364,6497
13.3714,6502
13.3788,6834
13.3862,7038
13.3935,6779
13.4009,6684
13.4083,6398
13.4157,6159
13.423,5995
13.4304,5824
13.4378,6230
13.4452,5620
13.4525,6158
13.4599,6531
13.4673,6370
13.4747,6521
13.4821,5547
13.4894,5596
13.4968,5653
13.5042,5593
13.5116,5202
13.5189,5286
13.5263,5351
13.5337,5340
13.5411,4984
13.5484,4978
13.5558,4953
13.5632,5629
13.5706,5417
13.5779,5093
13.5853,5552
13.5927,5446
13.6001,5375
13.6074,5270
13.6148,5624
13.6222,5137
13.6296,5183
13.637,4910
13.6443,5983
13.6517,6218
13.6591,5900
13.6665,5259
13.6738,5096
13.6812,5164
13.6886,5912
13.696,5454
13.7033,5563
13.7107,4841
13.7181,5348
13.7255,5031
13.7328,5298
13.7402,5524
13.7476,5965
13.755,6782
13.7624,6929
13.7697,6500
13.7771,6880
13.7845,6346
13.7919,6485
13.7992,6472
13.8066,6485
13.814,5870
13.8214,6306
13.8287,5865
13.8361,5918
13.8435,5529
13.8509,5528
13.8582,5326
13.8656,5528
13.873,5521
13.8804,5466
13.8878,5343
13.8951,5556
13.9025,6277
13.9099,5684
13.9173,5533
13.9246,5460
13.932,5309
13.9394,5219
13.9468,5179
13.9541,6417
13.9615,5675
13.9689,5226
13.9763,5913
13.9836,5226
13.991,5623
13.9984,5520
14.0058,6054
14.0132,5850
14.0205,4963
14.0279,4962
14.0353,4837
14.0427,7255
14.05,7615
14.0574,7721
14.0648,7242
14.0722,7500
14.0795,8869
14.0869,9997
14.0943,9411
14.1017,8125
14.109,7756
14.1164,7484
14.1238,7326
14.1312,7202
14.1385,7694
14.1459,7489
14.1533,6835
14.1607,7820
14.1681,7277
14.1754,7447
14.1828,7314
14.1902,7275
14.1976,7203
14.2049,7551
14.2123,7541
14.2197,7549
14.2271,7293
14.2344,7115
14.2418,7464
14.2492,7581
14.2566,7088
14.2639,7417
14.2713,7169
14.2787,7148
14.2861,7168
14.2935,6926
14.3008,7095
14.3082,7077
14.3156,7105
14.323,7149
14.3303,7751
14.3377,7246
14.3451,7178
14.3525,6620
14.3598,6507
14.3672,6419
14.3746,6165
14.382,6298
14.3893,6491
14.3967,6996
14.4041,6664
14.4115,6450
14.4189,6265
14.4262,6332
14.4336,6486
14.441,6802
14.4484,6979
14.4557,7477
14.4631,6810
14.4705,6743
14.4779,6256
14.4852,6077
14.4926,6568
14.5,6407
14.5074,6691
14.5147,6761
14.5221,6953
14.5295,6569
14.5369,6497
14.5442,6795
14.5516,7003
14.559,6369
14.5664,6354
14.5738,6670
14.5811,7125
14.5885,7423
14.5959,7000
14.6033,7200
14.6106,6853
14.618,7175
14.6254,7423
14.6328,7535
14.6401,8169
14.6475,8317
14.6549,8451
14.6623,8315
14.6696,8270
14.677,8097
14.6844,7841
14.6918,7542
14.6992,7369
14.7065,7091
14.7139,6542
14.7213,7039
14.7287,6752
14.736,6712
14.7434,6647
14.7508,6446
14.7582,6112
14.7655,6524
14.7729,6878
14.7803,7545
14.7877,7601
14.795,7634
14.8024,6988
14.8098,6798
14.8172,6843
14.8246,6724
14.8319,6665
14.8393,6347
14.8467,6639
14.8541,6108
14.8614,6069
14.8688,5660
14.8762,6531
14.8836,6575
14.8909,6950
14.8983,6888
14.9057,7443
14.9131,8304
14.9204,8405
14.9278,8788
14.9352,9359
14.9426,9281
14.9499,7451
14.9573,7265
14.9647,6369
14.9721,6243
14.9795,6164
14.9868,6240
14.9942,6018
15.0016,5932
15.009,5936
15.0163,6177
15.0237,8288
15.0311,10264
15.0385,10369
15.0458,8546
15.0532,8009
15.0606,8055
15.068,7960
15.0753,7206
15.0827,6826
15.0901,8040
15.0975,7577
15.1049,7716
15.1122,6890
15.1196,6548
15.127,7320
15.1344,7443
15.1417,7815
15.1491,9924
15.1565,8558
15.1639,7796
15.1712,7827
15.1786,8101
15.186,8805
15.1934,8124
15.2007,6719
15.2081,6433
15.2155,7009
15.2229,6604
15.2303,7158
15.2376,7091
15.245,8505
15.2524,9488
15.2598,12698
15.2671,13065
15.2745,12450
15.2819,11203
15.2893,10684
15.2966,10449
15.304,9697
15.3114,10104
15.3188,9382
15.3261,8969
15.3335,9330
15.3409,8886
15.3483,9427
15.3556,9772
15.363,9659
15.3704,7827
15.3778,6965
15.3852,6498
15.3925,6105
15.3999,6503
15.4073,5994
15.4147,6174
15.422,5989
15.4294,5801
15.4368,6055
15.4442,6116
15.4515,5976
15.4589,5936
15.4663,5999
15.4737,6140
15.481,6017
15.4884,6469
15.4958,6029
15.5032,7183
15.5106,8020
15.5179,7388
15.5253,6528
15.5327,6165
15.5401,6233
15.5474,6376
15.5548,5897
15.5622,6073
15.5696,8781
15.5769,14443
15.5843,16613
15.5917,13613
15.5991,13204
15.6064,14391
15.6138,13650
15.6212,13733
15.6286,12770
15.636,9918
15.6433,8075
15.6507,8368
15.6581,7277
15.6655,7320
15.6728,8004
15.6802,7627
15.6876,6648
15.695,6642
15.7023,6946
15.7097,7275
15.7171,7058
15.7245,7201
15.7318,8670
15.7392,7483
15.7466,7221
15.754,6896
15.7614,7682
15.7687,7308
15.7761,6649
15.7835,7240
15.7909,7298
15.7982,7228
15.8056,7051
15.813,6971
15.8204,7024
15.8277,6814
15.8351,6793
15.8425,6763
15.8499,8583
15.8572,9493
15.8646,9582
15.872,10046
15.8794,9368
15.8867,9132
15.8941,9216
15.9015,10297
15.9089,10629
15.9163,10272
15.9236,10256
15.931,10116
15.9384,10040
15.9458,10124
15.9531,9765
15.9605,9606
15.9679,9531
15.9753,9517
15.9826,9964
15.99,9876
15.9974,10705
16.0048,10510
16.0121,10191
16.0195,10408
16.0269,10118
16.0343,10232
16.0417,11514
16.049,11724
16.0564,11544
16.0638,10699
16.0711,11065
16.0785,10567
16.0859,11236
16.0933,9902
16.1007,10586
16.108,10626
16.1154,10542
16.1228,10066
16.1302,10348
16.1375,10379
16.1449,10426
16.1523,10292
16.1597,10379
16.1671,10973
16.1744,10620
16.1818,11022
16.1892,10976
16.1965,12553
16.2039,15120
16.2113,16669
16.2187,15108
16.2261,12736
16.2334,11497
16.2408,11323
16.2482,11530
16.2556,10922
16.2629,10635
16.2703,11017
16.2777,10865
16.2851,10858
16.2924,11691
16.2998,11890
16.3072,11143
16.3146,11048
16.322,11003
16.3293,11289
16.3367,10925
16.3441,10976
16.3515,11412
16.3588,11800
16.3662,12918
16.3736,14203
16.3809,14606
16.3883,14011
16.3957,12455
16.4031,12167
16.4105,11690
16.4178,11878
16.4252,12460
16.4326,12200
16.44,12806
16.4474,13171
16.4547,13708
16.4621,14347
16.4695,15295
16.4768,16505
16.4842,19251
16.4916,23035
16.499,28098
16.5064,31040
16.5137,31337
16.5211,29009
16.5285,25461
16.5359,20983
16.5432,19211
16.5506,17882
16.558,17034
16.5654,16927
16.5727,17901
16.5801,19358
16.5875,23802
16.5949,27054
16.6023,33367
16.6096,35233
16.617,32568
16.6244,28601
16.6318,23572
16.6391,20993
16.6465,18534
16.6539,17939
16.6613,17090
16.6686,16750
16.676,16212
16.6834,15854
16.6908,15865
16.6981,14154
16.7055,12885
16.7129,12747
16.7203,11965
16.7277,12083
16.735,11415
16.7424,11479
16.7498,12107
16.7571,11843
16.7645,11814
16.7719,11668
16.7793,11425
16.7867,12043
16.794,15288
16.8014,17758
16.8088,17856
16.8162,15073
16.8235,13777
16.8309,13721
16.8383,13600
16.8457,13487
16.8531,13433
16.8604,13120
16.8678,11881
16.8752,11764
16.8825,12172
16.8899,12422
16.8973,11712
16.9047,11922
16.9121,12319
16.9194,12291
16.9268,11844
16.9342,12284
16.9416,12018
16.9489,12357
16.9563,12908
16.9637,11904
16.9711,12417
16.9784,12784
16.9858,12280
16.9932,12123
17.0006,12029
17.008,11908
17.0153,11952
17.0227,12166
17.0301,11906
17.0375,12219
17.0448,12304
17.0522,12441
17.0596,12525
17.067,12351
17.0743,12621
17.0817,12980
17.0891,12679
17.0965,12819
17.1039,12982
17.1112,13093
17.1186,13596
17.126,13064
17.1334,12972
17.1407,13290
17.1481,13642
17.1555,13258
17.1628,14061
17.1702,14487
17.1776,15003
17.185,18498
17.1924,23262
17.1997,22064
17.2071,17299
17.2145,15552
17.2219,14388
17.2292,14860
17.2366,14655
17.244,14502
17.2514,13588
17.2587,14039
17.2661,14553
17.2735,14480
17.2809,14183
17.2883,14333
17.2956,13926
17.303,13778
17.3104,13714
17.3178,13943
17.3251,14153
17.3325,13363
17.3399,14259
17.3473,14584
17.3546,14550
17.362,14649
17.3694,15060
17.3768,15251
17.3842,14550
17.3915,14851
17.3989,15284
17.4063,14599
17.4137,14425
17.421,14478
17.4284,15104
17.4358,14891
17.4431,15151
17.4505,15965
17.4579,16169
17.4653,16210
17.4727,16663
17.48,18398
17.4874,19128
