D:\Data GC-MS\2021\8 AUGUST\30-08-21\43791-21 1  GS.D 30 Aug 21  10:26 am
Start of data points
1.29387,4232145
1.3006,4219634
1.30735,4184151
1.3141,4203840
1.32083,4182263
1.32758,4157696
1.33432,4072870
1.34107,3962342
1.3478,3841501
1.35455,3691814
1.36128,3524044
1.36803,3317916
1.37478,3106558
1.38152,2913980
1.38827,2673256
1.395,2420820
1.40175,2188256
1.40848,1940273
1.41523,1727115
1.42198,1665058
1.42872,1625283
1.43547,1495569
1.4422,1361357
1.44895,1250369
1.45568,1145933
1.46243,1044333
1.46918,966473
1.47592,913405
1.48267,859099
1.4894,797849
1.51027,2050070
1.51765,1890774
1.52502,1742644
1.5324,1608144
1.53977,1490824
1.54715,1409292
1.55452,1357661
1.5619,1176431
1.56928,1097045
1.57665,1038739
1.58403,1157900
1.5914,1107709
1.59878,1015173
1.60617,935004
1.61353,867400
1.62092,813225
1.62828,733636
1.63567,675505
1.64303,627250
1.65042,575586
1.6578,524358
1.66517,483852
1.67255,444921
1.67992,472062
1.6873,452195
1.69468,473956
1.70205,558244
1.70943,766958
1.7168,823208
1.72418,738665
1.73155,617913
1.73893,567378
1.74632,539365
1.75368,486710
1.76107,442670
1.76843,428434
1.77582,439669
1.7832,409363
1.79057,373866
1.79795,390005
1.80532,348847
1.8127,303733
1.82007,275911
1.82745,253905
1.83483,238117
1.8422,241791
1.84958,219063
1.85695,199127
1.86433,186941
1.87172,182579
1.87908,150783
1.88647,148093
1.89383,126337
1.90122,114620
1.90858,106183
1.91597,97524
1.92335,91648
1.93072,91923
1.9381,86978
1.94547,77997
1.95285,66064
1.96022,60250
1.9676,59421
1.97498,49712
1.98235,49908
1.98973,50060
1.9971,57594
2.00448,66363
2.01187,60144
2.01923,54340
2.02662,50093
2.03398,55057
2.04137,58275
2.04873,88502
2.05612,108700
2.0635,100696
2.07087,88137
2.07825,80940
2.08562,78879
2.093,68330
2.10038,64150
2.10775,58541
2.11513,62229
2.1225,55106
2.12988,44956
2.13725,40905
2.14463,38060
2.15202,33057
2.15938,31085
2.16677,28306
2.17413,26731
2.18152,23094
2.1889,19658
2.19627,22166
2.20365,24273
2.21102,26365
2.2184,26027
2.22577,21868
2.23315,22009
2.24053,28360
2.2479,29786
2.25528,25702
2.26265,24857
2.27003,22960
2.27742,23957
2.28478,28110
2.29217,28503
2.29953,32224
2.30692,60698
2.31428,105246
2.32167,114974
2.32905,107642
2.33642,128488
2.3438,126701
2.35117,125390
2.35855,107194
2.36593,97477
2.3733,86899
2.38068,83552
2.38805,105646
2.39543,128005
2.4028,144444
2.41018,121650
2.41757,108997
2.42493,102471
2.43232,89007
2.43968,77584
2.44707,67950
2.45445,77016
2.46182,71752
2.4692,61284
2.47657,58785
2.48395,67342
2.49132,72194
2.4987,68826
2.50608,65886
2.51345,66783
2.52083,60878
2.5282,55872
2.53558,57313
2.54295,58347
2.55033,52091
2.55772,46584
2.56508,45000
2.57247,41000
2.57983,35779
2.58722,31634
2.5946,28875
2.60197,35662
2.60935,65501
2.61672,67621
2.6241,63147
2.63147,60209
2.63885,62086
2.64623,59554
2.6536,56159
2.66098,51429
2.66835,48071
2.67573,42934
2.68312,40445
2.69048,35674
2.69787,31030
2.70523,27361
2.71262,25860
2.71998,28707
2.72737,24219
2.73475,21370
2.74212,19079
2.7495,18535
2.75687,20454
2.76425,18097
2.77163,16318
2.779,13895
2.78638,12524
2.79375,11370
2.80113,10579
2.8085,12468
2.81588,13513
2.82327,11820
2.83063,11813
2.83802,10988
2.84538,10765
2.85277,12697
2.86015,27279
2.86752,36541
2.8749,59724
2.88227,94089
2.88965,104294
2.89702,93596
2.9044,85964
2.91178,84754
2.91915,77320
2.92653,73655
2.9339,73181
2.94128,73446
2.94867,63878
2.95603,56507
2.96342,48869
2.97078,45888
2.97817,44160
2.98553,41095
2.99292,37670
3.0003,30295
3.00767,27615
3.01505,25646
3.02242,22032
3.0298,24573
3.03718,26122
3.04455,27780
3.05193,30992
3.0593,30016
3.06668,26951
3.07405,23466
3.08143,21402
3.08882,18721
3.09618,17199
3.10357,15047
3.11093,13251
3.11832,16191
3.12568,17594
3.13307,17226
3.14045,17088
3.14782,15756
3.1552,14999
3.16257,15321
3.16995,14988
3.17733,16688
3.1847,16695
3.19208,15553
3.19945,16171
3.20683,15612
3.2142,13984
3.22158,13301
3.22897,15808
3.23633,24005
3.24372,24463
3.25108,24977
3.25847,24323
3.26585,22873
3.27322,25937
3.2806,21529
3.28797,28234
3.29535,48205
3.30272,60471
3.3101,83860
3.31748,188455
3.32485,470681
3.33223,497730
3.3396,433488
3.34698,383286
3.35437,307195
3.36173,267898
3.36912,226295
3.37648,249179
3.38387,239059
3.39123,199016
3.39862,165654
3.406,133617
3.41337,127964
3.42075,95287
3.42812,74191
3.4355,62456
3.44288,52061
3.45025,42524
3.45763,32817
3.465,26403
3.47238,23606
3.47975,28780
3.48713,39433
3.49452,39902
3.50188,45755
3.50927,40251
3.51663,39495
3.52402,37213
3.5314,32015
3.53877,29844
3.54615,25405
3.55352,20193
3.5609,20402
3.56827,15669
3.57565,16892
3.58303,19817
3.5904,31443
3.59778,27361
3.60515,25977
3.61253,28674
3.61992,32363
3.62728,31252
3.63467,29529
3.64203,26097
3.64942,21224
3.65678,24550
3.66417,25236
3.67155,23126
3.67892,24708
3.6863,43365
3.69367,72165
3.70105,80994
3.70842,73601
3.7158,66651
3.72318,62611
3.73055,54392
3.73793,47161
3.7453,38935
3.75268,32042
3.76007,25643
3.76743,21247
3.77482,18654
3.78218,18013
3.78957,22440
3.79693,35939
3.80432,42595
3.8117,41127
3.81907,36184
3.82645,30499
3.83382,26777
3.8412,23178
3.84858,20740
3.85595,18868
3.86333,19146
3.8707,17587
3.87808,15477
3.88545,14465
3.89283,12196
3.90022,10986
3.90758,11021
3.91497,12044
3.92233,11640
3.92972,10483
3.9371,11808
3.94447,14541
3.95185,15254
3.95922,14148
3.9666,11757
3.97397,11727
3.98135,11011
3.98873,13976
3.9961,16737
4.00348,16657
4.01085,16044
4.01823,18244
4.02562,18378
4.03298,22104
4.04037,21998
4.04773,21248
4.05512,22380
4.06248,19228
4.06987,17639
4.07725,15348
4.08462,14783
4.092,19803
4.09937,27243
4.10675,36513
4.11413,41126
4.1215,37578
4.12888,35299
4.13625,33982
4.14363,35706
4.151,29203
4.15838,22151
4.16577,17033
4.17313,14447
4.18052,17580
4.18788,17168
4.19527,16281
4.20265,15415
4.21002,14986
4.2174,18245
4.22477,16268
4.23215,16983
4.23952,19311
4.2469,21307
4.25428,20256
4.26165,17055
4.26903,17440
4.2764,15385
4.28378,14431
4.29115,12122
4.29853,11974
4.30592,11859
4.31328,10715
4.32067,10491
4.32803,10731
4.33542,9743
4.3428,9582
4.35017,9876
4.35755,10221
4.36492,14685
4.3723,19728
4.37967,21301
4.38705,24087
4.39443,23636
4.4018,23687
4.40918,22696
4.41655,21672
4.42393,52878
4.43132,196249
4.43868,358141
4.44607,416383
4.45343,323641
4.46082,251340
4.46818,183482
4.47557,137584
4.48295,92925
4.49032,59114
4.4977,38985
4.50507,33614
4.51245,22786
4.51983,19647
4.5272,57948
4.53458,367331
4.54195,1078651
4.54933,1663766
4.5567,1637441
4.56408,1513279
4.57147,1286836
4.57883,816956
4.58622,503445
4.59358,288645
4.60097,160173
4.60835,118449
4.61572,73642
4.6231,46924
4.63047,32143
4.63785,23785
4.64522,18231
4.6526,17523
4.65998,18220
4.66735,19134
4.67473,17045
4.6821,14085
4.68948,12370
4.69687,11393
4.70423,11503
4.71162,12173
4.71898,11865
4.72637,11550
4.73373,12313
4.74112,17909
4.7485,21852
4.75587,22177
4.76325,20022
4.77062,18481
4.778,16098
4.78538,15370
4.79275,19522
4.80013,20453
4.8075,68309
4.81488,340184
4.82225,663353
4.82963,805840
4.83702,594520
4.84438,396469
4.85177,225273
4.85913,126710
4.86652,70934
4.8739,38225
4.88127,29702
4.88865,32137
4.89602,35887
4.9034,30068
4.91077,23932
4.91815,16728
4.92553,11238
4.9329,9383
4.94028,7032
4.94765,7563
4.95503,8465
4.96242,11469
4.96978,11501
4.97717,11103
4.98453,9954
4.99192,8888
4.99928,8990
5.00667,10601
5.01405,12449
5.02142,15609
5.0288,19200
5.03617,17924
5.04355,14262
5.05092,10487
5.0583,8853
5.06568,10769
5.07305,12083
5.08043,13241
5.0878,13412
5.09518,11121
5.10257,10457
5.10993,9879
5.11732,10559
5.12468,9355
5.13207,7401
5.13943,8260
5.14682,7708
5.1542,8788
5.16157,9728
5.16895,13065
5.17632,23894
5.1837,44287
5.19108,80513
5.19845,88353
5.20583,64328
5.2132,36303
5.22058,22794
5.22795,13967
5.23533,14749
5.24272,15782
5.25008,16306
5.25747,13847
5.26483,13302
5.27222,12875
5.2796,12263
5.28697,17798
5.29435,28539
5.30172,31635
5.3091,24988
5.31647,20924
5.32385,18876
5.33123,16076
5.3386,13279
5.34598,12586
5.35335,13922
5.36073,15066
5.36812,15153
5.37548,13874
5.38287,13644
5.39023,13638
5.39762,12691
5.40498,11612
5.41237,11948
5.41975,11456
5.42712,11623
5.4345,11608
5.44187,10936
5.44925,10995
5.45663,11755
5.464,12363
5.47138,11818
5.47875,10955
5.48613,9067
5.4935,7960
5.50088,7628
5.50827,8362
5.51563,10436
5.52302,15871
5.53038,22858
5.53777,52594
5.54515,163686
5.55252,265675
5.5599,225566
5.56727,120436
5.57465,52427
5.58202,26446
5.5894,21440
5.59678,18298
5.60415,17337
5.61153,23706
5.6189,67666
5.62628,327978
5.63365,872417
5.64103,1060055
5.64842,656066
5.65578,282069
5.66317,208675
5.67053,397197
5.67792,497324
5.6853,328515
5.69267,138075
5.70005,49191
5.70742,20697
5.7148,23201
5.72217,112922
5.72955,362490
5.73693,486010
5.7443,294616
5.75168,121905
5.75905,44865
5.76643,18056
5.77382,11695
5.78118,9640
5.78857,10203
5.79593,9608
5.80332,11789
5.81068,11141
5.81807,11375
5.82545,20958
5.83282,92380
5.8402,332379
5.84757,416283
5.85495,234273
5.86233,94189
5.8697,30006
5.87708,16586
5.88445,12940
5.89183,10847
5.8992,9183
5.90658,9080
5.91397,9745
5.92133,10828
5.92872,10225
5.93608,10163
5.94347,9913
5.95085,10976
5.95822,11639
5.9656,13493
5.97297,16471
5.98035,11670
5.98772,9457
5.9951,10518
6.00248,13449
6.00985,53714
6.01723,499919
6.0246,1496077
6.03198,1869454
6.03937,1033013
6.04673,281386
6.05412,68215
6.06148,36132
6.06887,30321
6.07623,18659
6.08362,12754
6.091,11237
6.09837,11406
6.10575,10896
6.11312,9062
6.1205,9656
6.12788,8479
6.13525,7234
6.14263,6874
6.15,8138
6.15738,7817
6.16475,7524
6.17213,10306
6.17952,16122
6.18688,20095
6.19427,19212
6.20163,20295
6.20902,24369
6.21638,17481
6.22377,10523
6.23115,7331
6.23852,6785
6.2459,8150
6.25327,7596
6.26065,7218
6.26803,10379
6.2754,11733
6.28278,8631
6.29015,6592
6.29753,7446
6.3049,17771
6.31228,42068
6.31967,44922
6.32703,33437
6.33442,82318
6.34178,238904
6.34917,289760
6.35655,156641
6.36392,50328
6.3713,24890
6.37867,23655
6.38605,17771
6.39342,9776
6.4008,6675
6.40818,7095
6.41555,6378
6.42293,7526
6.4303,7009
6.43768,5916
6.44507,6421
6.45243,9050
6.45982,12323
6.46718,8266
6.47457,7222
6.48193,7975
6.48932,10277
6.4967,19563
6.50407,56107
6.51145,90261
6.51882,70645
6.5262,29118
6.53358,11438
6.54095,7664
6.54833,6152
6.5557,6817
6.56308,6643
6.57045,6817
6.57783,9138
6.58522,8797
6.59258,8460
6.59997,8009
6.60733,8519
6.61472,16092
6.6221,39827
6.62947,53962
6.63685,30048
6.64422,14719
6.6516,28123
6.65897,82635
6.66635,103049
6.67373,53717
6.6811,19403
6.68848,15112
6.69585,15721
6.70323,12367
6.71062,20702
6.71798,61929
6.72537,124356
6.73273,128354
6.74012,60403
6.74748,20423
6.75487,13698
6.76225,10903
6.76962,9237
6.777,14533
6.78437,17493
6.79175,11207
6.79912,7863
6.8065,6427
6.81388,7534
6.82125,13919
6.82863,28863
6.836,28579
6.84338,18454
6.85077,19233
6.85813,13967
6.86552,9561
6.87288,7836
6.88027,7039
6.88763,5669
6.89502,5535
6.9024,6462
6.90977,6323
6.91715,6339
6.92452,10110
6.9319,35960
6.93928,62522
6.94665,44990
6.95403,23067
6.9614,26952
6.96878,59156
6.97615,59588
6.98353,24211
6.99092,8494
6.99828,6580
7.00567,6211
7.01303,7871
7.02042,14837
7.0278,34216
7.03517,83230
7.04255,79777
7.04992,40696
7.0573,16219
7.06467,18316
7.07205,31238
7.07943,29697
7.0868,17793
7.09418,17263
7.10155,18706
7.10893,13086
7.11632,9444
7.12368,8857
7.13107,7676
7.13843,5976
7.14582,5866
7.15318,6210
7.16057,10230
7.16795,17163
7.17532,12318
7.1827,6504
7.19007,7112
7.19745,7265
7.20483,10044
7.2122,16773
7.21958,15406
7.22695,13558
7.23433,14320
7.2417,12505
7.24908,17191
7.25647,25162
7.26383,20451
7.27122,8856
7.27858,6160
7.28597,6242
7.29335,9430
7.30072,10561
7.3081,9932
7.31547,10247
7.32285,12173
7.33022,10633
7.3376,9875
7.34498,9598
7.35235,8114
7.35973,8061
7.3671,8931
7.37448,13141
7.38185,36111
7.38923,61082
7.39662,39076
7.40398,16363
7.41137,15149
7.41873,39754
7.42612,77880
7.4335,62864
7.44087,25117
7.44825,12180
7.45562,9573
7.463,8943
7.47037,8420
7.47775,7934
7.48513,8643
7.4925,8395
7.49988,8436
7.50725,6891
7.51463,6796
7.52202,7854
7.52938,8260
7.53677,6182
7.54413,5398
7.55152,5037
7.55888,6409
7.56627,8624
7.57365,11699
7.58102,9954
7.5884,7993
7.59577,7347
7.60315,9544
7.61053,16160
7.6179,16017
7.62528,11910
7.63265,8829
7.64003,9308
7.6474,20857
7.65478,41292
7.66217,30203
7.66953,13247
7.67692,8939
7.68428,8862
7.69167,8195
7.69905,8208
7.70642,6382
7.7138,5233
7.72117,6239
7.72855,8802
7.73592,12073
7.7433,29694
7.75068,49104
7.75805,41449
7.76543,37654
7.7728,22693
7.78018,13939
7.78757,9059
7.79493,6296
7.80232,6163
7.80968,9451
7.81707,13143
7.82443,21624
7.83182,26651
7.8392,18058
7.84657,9837
7.85395,6969
7.86132,6750
7.8687,8233
7.87608,9247
7.88345,10567
7.89083,11274
7.8982,17075
7.90558,22202
7.91295,14797
7.92033,11399
7.92772,10234
7.93508,9423
7.94247,8718
7.94983,8965
7.95722,7253
7.96458,8476
7.97197,10591
7.97935,15309
7.98672,11572
7.9941,7395
8.00147,5735
8.00885,5657
8.01623,6279
8.0236,5616
8.03098,5666
8.03835,5755
8.04573,5339
8.0531,4755
8.06048,5945
8.06787,5666
8.07523,5311
8.08262,5456
8.08998,6539
8.09737,9437
8.10475,13943
8.11212,16690
8.1195,12679
8.12687,13428
8.13425,15874
8.14162,19006
8.149,26392
8.15638,25618
8.16375,27646
8.17113,20584
8.1785,12506
8.18588,11440
8.19327,23157
8.20063,32414
8.20802,29811
8.21538,22138
8.22277,22990
8.23013,24721
8.23752,24056
8.2449,14905
8.25227,10616
8.25965,10403
8.26702,9561
8.2744,8183
8.28178,7982
8.28915,8158
8.29653,8670
8.3039,8525
8.31128,10378
8.31865,15283
8.32603,15192
8.33342,9727
8.34078,7384
8.34817,5671
8.35553,5461
8.36292,6352
8.3703,7012
8.37767,6192
8.38505,6067
8.39242,5819
8.3998,7328
8.40717,9217
8.41455,8416
8.42193,7624
8.4293,5938
8.43668,5329
8.44405,5015
8.45143,5919
8.45882,8648
8.46618,14514
8.47357,11196
8.48093,7999
8.48832,6038
8.49568,5942
8.50307,6198
8.51045,5337
8.51782,5039
8.5252,5304
8.53257,5829
8.53995,6143
8.54732,5080
8.5547,6584
8.56208,7144
8.56945,7612
8.57683,8691
8.5842,12387
8.59158,17737
8.59897,17409
8.60633,10659
8.61372,6575
8.62108,5185
8.62847,6170
8.63583,6696
8.64322,7879
8.6506,8377
8.65797,8518
8.66535,8356
8.67272,6830
8.6801,6854
8.68748,6201
8.69485,8059
8.70223,8679
8.7096,6877
8.71698,6955
8.72435,6988
8.73173,7591
8.73912,13301
8.74648,27808
8.75387,55238
8.76123,102495
8.76862,162831
8.776,215288
8.78337,215258
8.79075,122519
8.79812,69622
8.8055,45172
8.81287,38282
8.82025,34819
8.82763,28196
8.835,22238
8.84238,18532
8.84975,17130
8.85713,16068
8.86452,14296
8.87188,14121
8.87927,15172
8.88663,17975
8.89402,20179
8.90138,13795
8.90877,11432
8.91615,9847
8.92352,9798
8.9309,9923
8.93827,11158
8.94565,11851
8.95303,10442
8.9604,11141
8.96778,10077
8.97515,9561
8.98253,9303
8.9899,9925
8.99728,9206
9.00467,8261
9.01203,8736
9.01942,9191
9.02678,9415
9.03417,8503
9.04155,9029
9.04892,9145
9.0563,8673
9.06367,7233
9.07105,7806
9.07842,8253
9.0858,9990
9.09318,9414
9.10055,8526
9.10793,8784
9.1153,9350
9.12268,8368
9.13005,8378
9.13743,9071
9.14482,9392
9.15218,9373
9.15957,9112
9.16693,9159
9.17432,8600
9.1817,7503
9.18907,8266
9.19645,6622
9.20382,5575
9.2112,6315
9.21857,6055
9.22595,5688
9.23333,6210
9.2407,6152
9.24808,9628
9.25545,14286
9.26283,13705
9.27022,9877
9.27758,7668
9.28497,5630
9.29233,5185
9.29972,5304
9.30708,5256
9.31447,6014
9.32185,5753
9.32922,5333
9.3366,5821
9.34397,5056
9.35135,4860
9.35873,5250
9.3661,5158
9.37348,5069
9.38085,4859
9.38823,4640
9.3956,6871
9.40298,9907
9.41037,11130
9.41773,10481
9.42512,7818
9.43248,6618
9.43987,6319
9.44725,5882
9.45462,5263
9.462,5090
9.46937,5176
9.47675,5388
9.48412,5076
9.4915,5170
9.49888,5139
9.50625,5057
9.51363,4431
9.521,4932
9.52838,4537
9.53577,5364
9.54313,5077
9.55052,4874
9.55788,4799
9.56527,4615
9.57263,5059
9.58002,4605
9.5874,4730
9.59477,4632
9.60215,4761
9.60952,4411
9.6169,4426
9.62428,4647
9.63165,4485
9.63903,4334
9.6464,5199
9.65378,5718
9.66115,5544
9.66853,5815
9.67592,5571
9.68328,5822
9.69067,5413
9.69803,5236
9.70542,5324
9.71278,5393
9.72017,5491
9.72755,5367
9.73492,4901
9.7423,4971
9.74967,5031
9.75705,4994
9.76443,4433
9.7718,4525
9.77918,4518
9.78655,4075
9.79393,4313
9.8013,4500
9.80868,4631
9.81607,4438
9.82343,4704
9.83082,4425
9.83818,4158
9.84557,4091
9.85295,4602
9.86032,4391
9.8677,4293
9.87507,4234
9.88245,4160
9.88982,4395
9.8972,4444
9.90458,3937
9.91195,3846
9.91933,3739
9.9267,3686
9.93408,4738
9.94147,4582
9.94883,4141
9.95622,4010
9.96358,4361
9.97097,4345
9.97833,3999
9.98572,4101
9.9931,4213
10.0005,4210
10.0079,5404
10.0152,5961
10.0226,5181
10.03,5509
10.0374,5351
10.0447,5070
10.0521,5109
10.0595,5087
10.0669,5261
10.0742,5850
10.0816,5571
10.089,5710
10.0964,5210
10.1037,5338
10.1111,5130
10.1185,5180
10.1259,4795
10.1333,4995
10.1406,4799
10.148,4984
10.1554,5039
10.1628,5103
10.1701,4669
10.1775,5028
10.1849,4878
10.1923,4962
10.1996,4515
10.207,4288
10.2144,4400
10.2218,4278
10.2291,4405
10.2365,4706
10.2439,4683
10.2513,4237
10.2587,4767
10.266,4336
10.2734,4595
10.2808,4443
10.2882,4371
10.2955,3984
10.3029,4155
10.3103,4147
10.3177,3926
10.325,3746
10.3324,3536
10.3398,3861
10.3472,3591
10.3545,4251
10.3619,3942
10.3693,3737
10.3767,4608
10.384,4515
10.3914,4649
10.3988,4450
10.4062,3923
10.4136,3808
10.4209,3964
10.4283,4309
10.4357,4224
10.4431,4024
10.4504,3779
10.4578,4060
10.4652,4139
10.4726,3526
10.4799,4685
10.4873,4741
10.4947,4648
10.5021,4149
10.5094,4139
10.5168,3994
10.5242,3984
10.5316,3874
10.539,3875
10.5463,3788
10.5537,3522
10.5611,4630
10.5685,4686
10.5758,4872
10.5832,4246
10.5906,3915
10.598,4072
10.6053,4285
10.6127,4733
10.6201,5206
10.6275,4809
10.6348,4520
10.6422,4404
10.6496,4197
10.657,4235
10.6644,3722
10.6717,4321
10.6791,4608
10.6865,4778
10.6939,4214
10.7012,4329
10.7086,4316
10.716,4456
10.7234,4752
10.7307,4060
10.7381,3805
10.7455,4147
10.7529,3441
10.7602,3834
10.7676,3597
10.775,3968
10.7824,4980
10.7898,5292
10.7971,5289
10.8045,4879
10.8119,4635
10.8193,4934
10.8266,4972
10.834,4390
10.8414,4333
10.8488,4365
10.8561,4407
10.8635,4397
10.8709,4723
10.8783,4577
10.8856,4468
10.893,4202
10.9004,3896
10.9078,3968
10.9151,4133
10.9225,4523
10.9299,4847
10.9373,4907
10.9447,4726
10.952,4221
10.9594,4216
10.9668,4108
10.9742,3656
10.9815,4062
10.9889,3697
10.9963,3764
11.0037,4590
11.011,4681
11.0184,4757
11.0258,4590
11.0332,4687
11.0405,4540
11.0479,4255
11.0553,4539
11.0627,3771
11.0701,3971
11.0774,3621
11.0848,3952
11.0922,3788
11.0996,3849
11.1069,3981
11.1143,3791
11.1217,3848
11.1291,4330
11.1364,5260
11.1438,5340
11.1512,5045
11.1586,5193
11.1659,5474
11.1733,4954
11.1807,5121
11.1881,5344
11.1955,5063
11.2028,5183
11.2102,5306
11.2176,5134
11.225,5548
11.2323,4879
11.2397,5206
11.2471,5457
11.2545,5403
11.2618,5521
11.2692,5729
11.2766,5746
11.284,5532
11.2913,5084
11.2987,5106
11.3061,5176
11.3135,5221
11.3208,4784
11.3282,5380
11.3356,5437
11.343,5523
11.3504,5206
11.3577,5378
11.3651,5331
11.3725,4904
11.3799,4897
11.3872,4900
11.3946,5416
11.402,5415
11.4094,5735
11.4167,5240
11.4241,4692
11.4315,4879
11.4389,4731
11.4462,5046
11.4536,5255
11.461,5054
11.4684,4671
11.4758,4443
11.4831,4633
11.4905,5212
11.4979,4512
11.5053,4516
11.5126,4097
11.52,4288
11.5274,4139
11.5348,3789
11.5421,3867
11.5495,3671
11.5569,3830
11.5643,4046
11.5716,3603
11.579,4051
11.5864,4929
11.5938,4354
11.6012,4331
11.6085,4198
11.6159,3967
11.6233,4705
11.6307,4494
11.638,4457
11.6454,4473
11.6528,4444
11.6602,4036
11.6675,3776
11.6749,6187
11.6823,13980
11.6897,22409
11.697,14839
11.7044,8552
11.7118,6072
11.7192,5659
11.7265,5146
11.7339,5615
11.7413,7034
11.7487,7580
11.7561,5835
11.7634,4811
11.7708,4749
11.7782,4692
11.7856,5263
11.7929,4800
11.8003,5104
11.8077,5263
11.8151,4771
11.8224,4489
11.8298,4712
11.8372,4414
11.8446,4277
11.8519,4203
11.8593,4101
11.8667,4217
11.8741,4317
11.8815,4204
11.8888,4563
11.8962,4214
11.9036,3936
11.911,3696
11.9183,3955
11.9257,4022
11.9331,4710
11.9405,5311
11.9478,4982
11.9552,4387
11.9626,4001
11.97,3906
11.9773,4834
11.9847,5415
11.9921,5160
11.9995,5081
12.0069,5083
12.0142,4813
12.0216,4784
12.029,4792
12.0364,4797
12.0437,5041
12.0511,5224
12.0585,5243
12.0659,5167
12.0732,4916
12.0806,5158
12.088,5417
12.0954,5192
12.1027,5167
12.1101,5293
12.1175,4792
12.1249,4764
12.1322,4425
12.1396,4599
12.147,4308
12.1544,4832
12.1618,4967
12.1691,4630
12.1765,4545
12.1839,4408
12.1913,4517
12.1986,4294
12.206,4195
12.2134,4455
12.2208,4455
12.2281,4332
12.2355,4029
12.2429,4338
12.2503,3985
12.2576,4385
12.265,4071
12.2724,3736
12.2798,4020
12.2872,4135
12.2945,4097
12.3019,3906
12.3093,3631
12.3167,3634
12.324,3947
12.3314,3661
12.3388,4559
12.3462,5209
12.3535,4583
12.3609,4361
12.3683,3886
12.3757,3921
12.383,3851
12.3904,4175
12.3978,4096
12.4052,3885
12.4126,4039
12.4199,4477
12.4273,4927
12.4347,4418
12.4421,3510
12.4494,3911
12.4568,3829
12.4642,4021
12.4716,3993
12.4789,3918
12.4863,3856
12.4937,3746
12.5011,4155
12.5084,4721
12.5158,4759
12.5232,4345
12.5306,4486
12.538,4201
12.5453,4109
12.5527,3924
12.5601,4535
12.5675,4401
12.5748,4817
12.5822,4844
12.5896,4757
12.597,4459
12.6043,4062
12.6117,3583
12.6191,4351
12.6265,6121
12.6338,7315
12.6412,7117
12.6486,6311
12.656,5652
12.6633,5258
12.6707,5955
12.6781,5608
12.6855,5470
12.6929,5199
12.7002,5130
12.7076,5699
12.715,5572
12.7224,5137
12.7297,4788
12.7371,4090
12.7445,4276
12.7519,4110
12.7592,3857
12.7666,3931
12.774,4357
12.7814,4524
12.7887,4549
12.7961,5469
12.8035,5493
12.8109,4894
12.8183,4437
12.8256,4497
12.833,4444
12.8404,4494
12.8478,4456
12.8551,4348
12.8625,4481
12.8699,4336
12.8773,4600
12.8846,5004
12.892,4237
12.8994,4098
12.9068,4113
12.9141,4708
12.9215,5111
12.9289,5016
12.9363,4466
12.9437,4334
12.951,4368
12.9584,4119
12.9658,4498
12.9732,4050
12.9805,3946
12.9879,4311
12.9953,4165
13.0027,5414
13.01,5358
13.0174,5166
13.0248,5260
13.0322,4896
13.0395,4957
13.0469,5043
13.0543,5273
13.0617,5329
13.069,5513
13.0764,6263
13.0838,5218
13.0912,4875
13.0986,5192
13.1059,5096
13.1133,5276
13.1207,5388
13.1281,5406
13.1354,4996
13.1428,4979
13.1502,4431
13.1576,4668
13.1649,4725
13.1723,4683
13.1797,5007
13.1871,6934
13.1944,13126
13.2018,17420
13.2092,11101
13.2166,5923
13.224,5044
13.2313,5437
13.2387,5744
13.2461,6336
13.2535,5268
13.2608,4434
13.2682,4355
13.2756,4149
13.283,4266
13.2903,4400
13.2977,4523
13.3051,4402
13.3125,4305
13.3198,4060
13.3272,4261
13.3346,4741
13.342,4726
13.3494,5383
13.3567,5109
13.3641,4541
13.3715,4384
13.3789,4307
13.3862,4519
13.3936,4548
13.401,4751
13.4084,4762
13.4157,4737
13.4231,4778
13.4305,4250
13.4379,4281
13.4452,4231
13.4526,3786
13.46,4284
13.4674,4512
13.4747,4238
13.4821,3802
13.4895,4343
13.4969,4311
13.5043,4369
13.5116,4362
13.519,4575
13.5264,4660
13.5338,4264
13.5411,3898
13.5485,4092
13.5559,4145
13.5633,3741
13.5706,3593
13.578,3803
13.5854,4915
13.5928,4985
13.6001,4491
13.6075,4064
13.6149,4178
13.6223,3758
13.6297,3843
13.637,4648
13.6444,4273
13.6518,4434
13.6592,4237
13.6665,4399
13.6739,4391
13.6813,3884
13.6887,3967
13.696,4222
13.7034,3987
13.7108,3674
13.7182,3872
13.7255,3929
13.7329,3593
13.7403,4148
13.7477,3945
13.7551,3985
13.7624,5261
13.7698,5229
13.7772,5382
13.7846,5282
13.7919,4905
13.7993,4825
13.8067,5073
13.8141,5008
13.8214,4738
13.8288,4433
13.8362,4186
13.8436,4078
13.8509,4315
13.8583,4268
13.8657,4448
13.8731,4838
13.8804,4920
13.8878,4352
13.8952,4205
13.9026,4267
13.91,4638
13.9173,4060
13.9247,4065
13.9321,4112
13.9395,4376
13.9468,4344
13.9542,3996
13.9616,4590
13.969,4967
13.9763,4889
13.9837,4724
13.9911,4467
13.9985,3887
14.0058,4606
14.0132,4335
14.0206,4148
14.028,4346
14.0354,4186
14.0427,3936
14.0501,3990
14.0575,4201
14.0649,4503
14.0722,4238
14.0796,4200
14.087,4160
14.0944,4111
14.1017,4145
14.1091,3770
14.1165,3946
14.1239,3854
14.1312,4076
14.1386,5225
14.146,5227
14.1534,4992
14.1608,5023
14.1681,4887
14.1755,4333
14.1829,4655
14.1903,4461
14.1976,4187
14.205,4237
14.2124,4100
14.2198,4448
14.2271,4780
14.2345,4550
14.2419,4474
14.2493,3984
14.2566,4097
14.264,4663
14.2714,4077
14.2788,4030
14.2862,4462
14.2935,4349
14.3009,3995
14.3083,4042
14.3157,5152
14.323,5968
14.3304,5746
14.3378,5724
14.3452,5988
14.3525,5466
14.3599,5728
14.3673,5633
14.3747,5650
14.382,5598
14.3894,5957
14.3968,5846
14.4042,5728
14.4115,5866
14.4189,5746
14.4263,5453
14.4337,5701
14.4411,5496
14.4484,5724
14.4558,5662
14.4632,5570
14.4706,5750
14.4779,5571
14.4853,5736
14.4927,5392
14.5001,5581
14.5074,5403
14.5148,5728
14.5222,5732
14.5296,6339
14.5369,8979
14.5443,10623
14.5517,8501
14.5591,6499
14.5665,6077
14.5738,7256
14.5812,7594
14.5886,6889
14.596,5787
14.6033,6041
14.6107,5859
14.6181,6270
14.6255,6210
14.6328,5665
14.6402,5952
14.6476,5676
14.655,5514
14.6623,6002
14.6697,6223
14.6771,5834
14.6845,6007
14.6919,5930
14.6992,5900
14.7066,5968
14.714,5503
14.7214,5985
14.7287,5895
14.7361,5555
14.7435,5534
14.7509,6015
14.7582,5699
14.7656,5756
14.773,5530
14.7804,5423
14.7877,5894
14.7951,5515
14.8025,5953
14.8099,5655
14.8172,5961
14.8246,5988
14.832,6075
14.8394,5780
14.8468,5753
14.8541,5872
14.8615,5671
14.8689,6092
14.8763,5889
14.8836,5800
14.891,5890
14.8984,6055
14.9058,5935
14.9131,5657
14.9205,6141
14.9279,6129
14.9353,6340
14.9426,5789
14.95,6009
14.9574,6205
14.9648,6076
14.9722,6419
14.9795,5866
14.9869,6226
14.9943,5893
15.0017,6275
15.009,6093
15.0164,6195
15.0238,5822
15.0312,6231
15.0385,6122
15.0459,6074
15.0533,6217
15.0607,6427
15.068,6332
15.0754,6424
15.0828,5936
15.0902,6303
15.0976,5850
15.1049,5972
15.1123,6210
15.1197,6583
15.1271,6646
15.1344,7318
15.1418,7288
15.1492,6714
15.1566,6719
15.1639,6589
15.1713,6304
15.1787,6294
15.1861,5992
15.1934,6263
15.2008,6634
15.2082,6265
15.2156,6824
15.2229,6349
15.2303,6915
15.2377,7698
15.2451,7902
15.2525,8824
15.2598,9424
15.2672,9707
15.2746,8755
15.282,8514
15.2893,7902
15.2967,8220
15.3041,7811
15.3115,8279
15.3188,8288
15.3262,8426
15.3336,8452
15.341,8808
15.3483,9512
15.3557,10045
15.3631,10638
15.3705,10693
15.3779,10496
15.3852,9302
15.3926,8802
15.4,7616
15.4074,7510
15.4147,7034
15.4221,6805
15.4295,7395
15.4369,7170
15.4442,6601
15.4516,6999
15.459,7265
15.4664,7548
15.4737,7031
15.4811,7138
15.4885,6805
15.4959,6892
15.5033,7135
15.5106,6997
15.518,7047
15.5254,7133
15.5328,7241
15.5401,7362
15.5475,7250
15.5549,7301
15.5623,7015
15.5696,7132
15.577,7098
15.5844,7110
15.5918,7528
15.5991,8364
15.6065,8823
15.6139,8413
15.6213,8662
15.6287,9041
15.636,9133
15.6434,7964
15.6508,7319
15.6582,7751
15.6655,7445
15.6729,8068
15.6803,7945
15.6877,7777
15.695,7816
15.7024,7345
15.7098,7629
15.7172,7278
15.7245,7551
15.7319,7628
15.7393,7692
15.7467,7469
15.754,7845
15.7614,7724
15.7688,7846
15.7762,7709
15.7836,7748
15.7909,7839
15.7983,8067
15.8057,7742
15.8131,7716
15.8204,8278
15.8278,8151
15.8352,7670
15.8426,7560
15.8499,7906
15.8573,7862
15.8647,7982
15.8721,8165
15.8794,8315
15.8868,8191
15.8942,8390
15.9016,7956
15.909,8511
15.9163,8764
15.9237,8487
15.9311,8544
15.9385,8522
15.9458,8397
15.9532,8266
15.9606,8807
15.968,8590
15.9753,8524
15.9827,8773
15.9901,8764
15.9975,8924
16.0048,8798
16.0122,9041
16.0196,9056
16.027,8617
16.0344,8212
16.0417,9075
16.0491,8795
16.0565,8890
16.0638,9165
16.0712,9573
16.0786,9855
16.086,9535
16.0934,9001
16.1007,8822
16.1081,9027
16.1155,9024
16.1229,8768
16.1302,9012
16.1376,8847
16.145,9230
16.1524,9059
16.1597,9067
16.1671,8814
16.1745,8719
16.1819,8846
16.1893,9070
16.1966,9374
16.204,10240
16.2114,10283
16.2188,9900
16.2261,9419
16.2335,9780
16.2409,8949
16.2482,8793
16.2556,9037
16.263,8784
16.2704,8688
16.2778,9171
16.2851,8547
16.2925,9123
16.2999,8973
16.3073,8649
16.3147,9125
16.322,8679
16.3294,8742
16.3368,9069
16.3441,9160
16.3515,9075
16.3589,9012
16.3663,9113
16.3737,9171
16.381,9259
16.3884,8942
16.3958,9112
16.4032,9356
16.4105,9426
16.4179,8710
16.4253,9195
16.4327,9117
16.44,8618
16.4474,9182
16.4548,8993
16.4622,10834
16.4696,12636
16.4769,11857
16.4843,10133
16.4917,10087
16.4991,9771
16.5064,10023
16.5138,10392
16.5212,10183
16.5286,9534
16.5359,9126
16.5433,9128
16.5507,9149
16.5581,9097
16.5654,9250
16.5728,9178
16.5802,8853
16.5876,9293
16.595,9405
16.6023,8894
16.6097,9337
16.6171,9005
16.6245,9023
16.6318,9018
16.6392,9254
16.6466,9402
16.6539,9430
16.6613,9463
16.6687,9450
16.6761,9958
16.6835,9960
16.6908,9850
16.6982,9791
16.7056,9370
16.713,8944
16.7204,9395
16.7277,9059
16.7351,8928
16.7425,8926
16.7498,8609
16.7572,8714
16.7646,8770
16.772,8965
16.7794,9100
16.7867,8996
16.7941,9019
16.8015,9462
16.8089,8688
16.8162,9446
16.8236,8990
16.831,9188
16.8384,8808
16.8457,8776
16.8531,8915
16.8605,8826
16.8679,9108
16.8753,8942
16.8826,8963
16.89,9056
16.8974,8749
16.9048,8894
16.9121,8585
16.9195,8795
16.9269,9063
16.9343,8788
16.9416,8866
16.949,9074
16.9564,8454
16.9638,8930
16.9711,8554
16.9785,8637
16.9859,9017
16.9933,9153
17.0007,9029
17.008,8745
17.0154,9139
17.0228,8815
17.0301,8621
17.0375,8727
17.0449,8791
17.0523,8631
17.0597,8635
17.067,8555
17.0744,7991
17.0818,8524
17.0892,8584
17.0965,8192
17.1039,8161
17.1113,7586
17.1187,7347
17.126,7178
17.1334,7238
17.1408,7614
17.1482,7857
17.1556,7969
17.1629,7861
17.1703,7827
17.1777,7553
17.1851,7707
17.1924,8640
17.1998,8471
17.2072,8019
17.2146,8113
17.2219,8315
17.2293,7579
17.2367,7353
17.2441,7759
17.2514,7321
17.2588,7432
17.2662,7258
17.2736,7221
17.281,7702
17.2883,7535
17.2957,8228
17.3031,7896
17.3104,7603
17.3178,7909
17.3252,8542
17.3326,7165
17.34,7301
17.3473,7114
17.3547,7430
17.3621,7057
17.3695,6720
17.3769,6414
17.3842,7954
17.3916,6638
17.399,6598
17.4064,6838
17.4137,7471
17.4211,7048
17.4285,7005
17.4358,7719
17.4432,8318
17.4506,8786
17.458,9791
17.4654,11036
17.4727,12802
17.4801,13163
17.4875,12989
