D:\Data GC-MS\2021\9 SEPTEMBER\01-09-21\45018-21-1-LQ-YA.D 01 Sep 21  07:59 am
Start of data points
1.29383,4830891
1.30058,4809248
1.30733,5453640
1.31407,6192478
1.32082,6396397
1.32755,6465293
1.3343,6469194
1.34103,6527817
1.34778,6356159
1.35453,6075148
1.36127,5726593
1.36802,5332238
1.37475,4933649
1.3815,4654206
1.38823,4460195
1.39498,4134428
1.40172,3825263
1.40847,5308845
1.41522,11222172
1.42195,12045325
1.4287,11875136
1.43543,11508677
1.44218,11139380
1.44892,11036948
1.45567,10721374
1.46242,11408886
1.46915,12379002
1.4759,12100053
1.48263,11644406
1.48938,11945922
1.51025,13566410
1.51762,13421548
1.525,14501789
1.53237,13971241
1.53975,13009752
1.54712,12035479
1.5545,11064075
1.56188,10177157
1.56925,9512423
1.57663,8939004
1.584,8267065
1.59138,7586888
1.59877,6945909
1.60613,6353626
1.61352,5788123
1.62088,5277740
1.62827,4800865
1.63563,4353961
1.64302,3937235
1.6504,3745280
1.65777,3611041
1.66515,3323764
1.67252,3013804
1.6799,2911274
1.68728,3655488
1.69465,8598277
1.70203,16556579
1.7094,17902812
1.71678,17702354
1.72415,17173698
1.73153,16517048
1.73892,15757054
1.74628,14885184
1.75367,14112130
1.76103,13878512
1.76842,14404677
1.7758,13963247
1.78317,13155341
1.79055,12431727
1.79792,11807266
1.8053,11084729
1.81267,10290741
1.82005,9242388
1.82743,8290093
1.8348,7422582
1.84218,6788917
1.84955,6957764
1.85693,6861251
1.86432,6499654
1.87168,6152107
1.87907,5826925
1.88643,5763225
1.89382,5801962
1.90118,5566372
1.90857,5225560
1.91595,5098976
1.92332,4844093
1.9307,4577339
1.93807,4393677
1.94545,4202368
1.95283,3981248
1.9602,3676634
1.96758,3399798
1.97495,3361196
1.98233,3433361
1.9897,3263960
1.99708,3136325
2.00447,2937726
2.01183,2692796
2.01922,2502066
2.02658,2538546
2.03397,2609339
2.04133,3084839
2.04872,3695328
2.0561,3689626
2.06347,3550144
2.07085,3370765
2.07822,3184097
2.0856,2971195
2.09298,2788536
2.10035,2582755
2.10773,2356898
2.1151,2149878
2.12248,1975823
2.12985,1779018
2.13723,1603633
2.14462,1426703
2.15198,1255365
2.15937,1092482
2.16673,948972
2.17412,807691
2.1815,695759
2.18887,606179
2.19625,644322
2.20362,973167
2.211,1172165
2.21837,1169114
2.22575,1141378
2.23313,1176721
2.2405,1198694
2.24788,1161731
2.25525,1154524
2.26263,1119997
2.27002,1101533
2.27738,1444538
2.28477,1964903
2.29213,2126684
2.29952,2199711
2.30688,2820303
2.31427,3705726
2.32165,3979236
2.32902,3995356
2.3364,4060048
2.34377,4252522
2.35115,4240989
2.35853,4119131
2.3659,3909639
2.37328,3663432
2.38065,3589479
2.38803,4205756
2.3954,4648932
2.40278,4647395
2.41017,4420675
2.41753,4185126
2.42492,3898851
2.43228,3603017
2.43967,3350201
2.44705,3053522
2.45442,2780421
2.4618,2540294
2.46917,2256645
2.47655,2096164
2.48392,2062097
2.4913,2040843
2.49868,2683073
2.50605,4404116
2.51343,5579667
2.5208,5927781
2.52818,6055929
2.53557,6146478
2.54293,6048231
2.55032,5805489
2.55768,5562242
2.56507,5202227
2.57243,4781289
2.57982,4376093
2.5872,3889528
2.59457,3364694
2.60195,3003938
2.60932,3042880
2.6167,3007836
2.62407,2840564
2.63145,2815098
2.63883,2903791
2.6462,2893088
2.65358,2821993
2.66095,2669078
2.66833,2489978
2.67572,2363328
2.68308,2209876
2.69047,1999563
2.69783,1750297
2.70522,1538684
2.71258,1404404
2.71997,1258409
2.72735,1097913
2.73472,949832
2.7421,867659
2.74947,843281
2.75685,806241
2.76423,744940
2.7716,676794
2.77898,606504
2.78635,540649
2.79373,470187
2.8011,410410
2.80848,374310
2.81587,354515
2.82323,322602
2.83062,287574
2.83798,252612
2.84537,233286
2.85275,258917
2.86012,326789
2.8675,398219
2.87487,561686
2.88225,796521
2.88962,900021
2.897,923675
2.90438,944088
2.91175,1056223
2.91913,1149329
2.9265,1202322
2.93388,1400735
2.94127,1577468
2.94863,1579554
2.95602,1514230
2.96338,1464349
2.97077,1421172
2.97813,1360367
2.98552,1285235
2.9929,1171435
3.00027,1026800
3.00765,894069
3.01502,748346
3.0224,630159
3.02978,547150
3.03715,506665
3.04453,499703
3.0519,505354
3.05928,481994
3.06665,449606
3.07403,410443
3.08142,379962
3.08878,347585
3.09617,305226
3.10353,267496
3.11092,232779
3.1183,240060
3.12567,466555
3.13305,995439
3.14042,1372563
3.1478,1556089
3.15517,1729758
3.16255,1873653
3.16993,1897196
3.1773,1850762
3.18468,1718928
3.19205,1595115
3.19943,1616014
3.2068,1719647
3.21418,1710490
3.22157,1641136
3.22893,1586320
3.23632,1654157
3.24368,1697734
3.25107,1636856
3.25845,1570816
3.26582,1472595
3.2732,1338710
3.28057,1149730
3.28795,1027755
3.29532,1011413
3.3027,1096712
3.31008,1397426
3.31745,2906402
3.32483,5679718
3.3322,8058308
3.33958,9400143
3.34697,9978461
3.35433,9870724
3.36172,9424039
3.36908,8525967
3.37647,7381522
3.38383,6503205
3.39122,5338036
3.3986,4443376
3.40597,3627308
3.41335,2944915
3.42072,2417091
3.4281,1974730
3.43548,1568956
3.44285,1210082
3.45023,907885
3.4576,675556
3.46498,516511
3.47235,396711
3.47973,348900
3.48712,350651
3.49448,359555
3.50187,358304
3.50923,333719
3.51662,332160
3.524,331561
3.53137,318697
3.53875,287438
3.54612,253078
3.5535,216355
3.56087,185177
3.56825,159154
3.57563,148260
3.583,155838
3.59038,200573
3.59775,237538
3.60513,262872
3.61252,291670
3.61988,327326
3.62727,351171
3.63463,364559
3.64202,375650
3.64938,379980
3.65677,369364
3.66415,352144
3.67152,334884
3.6789,319810
3.68627,350201
3.69365,507789
3.70103,677278
3.7084,769390
3.71578,829124
3.72315,809143
3.73053,724660
3.7379,606238
3.74528,470827
3.75267,356114
3.76003,273352
3.76742,217615
3.77478,181715
3.78217,160154
3.78953,181586
3.79692,265784
3.8043,349072
3.81167,394347
3.81905,405276
3.82642,371928
3.8338,331173
3.84118,270336
3.84855,210084
3.85593,170368
3.8633,155711
3.87068,148384
3.87805,139747
3.88543,126224
3.89282,110109
3.90018,90241
3.90757,77610
3.91493,69879
3.92232,67786
3.9297,67566
3.93707,67956
3.94445,81390
3.95182,101178
3.9592,109058
3.96657,106294
3.97395,95570
3.98133,85727
3.9887,78772
3.99608,85866
4.00345,92868
4.01083,101563
4.01822,111686
4.02558,124186
4.03297,139798
4.04033,160122
4.04772,165191
4.05508,165190
4.06247,156451
4.06985,137929
4.07722,117035
4.0846,98474
4.09197,94649
4.09935,118720
4.10673,183476
4.1141,271119
4.12148,350827
4.12885,377011
4.13623,376938
4.1436,349350
4.15098,291962
4.15837,236566
4.16573,181527
4.17312,138705
4.18048,109490
4.18787,96559
4.19525,94750
4.20262,93792
4.21,95799
4.21737,99935
4.22475,99342
4.23212,96020
4.2395,103055
4.24688,118131
4.25425,129812
4.26163,132189
4.269,127608
4.27638,119026
4.28377,112803
4.29113,108485
4.29852,106060
4.30588,106711
4.31327,101911
4.32063,95536
4.32802,87510
4.3354,80601
4.34277,68689
4.35015,57927
4.35752,59505
4.3649,78398
4.37227,110728
4.37965,134972
4.38703,156466
4.3944,172881
4.40178,177392
4.40915,187139
4.41653,196064
4.42392,313877
4.43128,903978
4.43867,1947421
4.44603,2793495
4.45342,3133812
4.46078,3029706
4.46817,2616519
4.47555,2018761
4.48292,1474048
4.4903,1044841
4.49767,771439
4.50505,549109
4.51243,347593
4.5198,210624
4.52718,213324
4.53455,779346
4.54193,2589009
4.5493,4894656
4.55668,7352897
4.56407,9785941
4.57143,11523278
4.57882,10968466
4.58618,8530216
4.59357,5163857
4.60095,2551394
4.60832,1213405
4.6157,598984
4.62307,340505
4.63045,220864
4.63782,172437
4.6452,139822
4.65258,117087
4.65995,100918
4.66733,99256
4.6747,101242
4.68208,101616
4.68947,89634
4.69683,83279
4.70422,82827
4.71158,82678
4.71897,85507
4.72633,91986
4.73372,107117
4.7411,138827
4.74847,178909
4.75585,201783
4.76322,197779
4.7706,178337
4.77798,147508
4.78535,123214
4.79273,112065
4.8001,109076
4.80748,178076
4.81485,775637
4.82223,2395877
4.82962,4439292
4.83698,5860744
4.84437,5580716
4.85173,3787406
4.85912,1856487
4.8665,921025
4.87387,501155
4.88125,319820
4.88862,336757
4.896,476471
4.90337,549736
4.91075,471756
4.91813,298809
4.9255,159186
4.93288,84009
4.94025,47282
4.94763,36915
4.95502,57169
4.96238,86936
4.96977,98930
4.97713,89022
4.98452,75878
4.99188,62270
4.99927,54060
5.00665,63300
5.01402,84131
5.0214,104025
5.02877,125815
5.03615,134098
5.04352,118689
5.0509,93698
5.05828,70625
5.06565,58056
5.07303,66964
5.0804,84343
5.08778,110052
5.09517,115583
5.10253,99296
5.10992,81590
5.11728,72085
5.12467,66649
5.13203,57923
5.13942,46490
5.1468,39614
5.15417,45684
5.16155,65017
5.16892,102958
5.1763,161511
5.18368,253886
5.19105,406638
5.19843,522555
5.2058,483481
5.21318,341078
5.22055,195421
5.22793,121001
5.23532,117821
5.24268,150209
5.25007,150851
5.25743,117187
5.26482,88722
5.2722,72278
5.27957,66840
5.28695,89851
5.29432,167168
5.3017,243987
5.30907,252016
5.31645,204360
5.32383,157300
5.3312,135711
5.33858,115586
5.34595,97542
5.35333,97248
5.36072,113483
5.36808,125791
5.37547,118968
5.38283,109710
5.39022,99656
5.39758,88601
5.40497,78983
5.41235,75864
5.41972,77713
5.4271,82929
5.43447,82007
5.44185,75737
5.44923,77280
5.4566,80551
5.46398,94475
5.47135,106637
5.47873,106860
5.4861,90599
5.49348,68596
5.50087,55293
5.50823,54990
5.51562,64243
5.52298,94899
5.53037,162032
5.53775,353868
5.54512,914837
5.5525,1737960
5.55987,2021569
5.56725,1648903
5.57462,999214
5.582,435333
5.58938,211122
5.59675,213940
5.60413,283924
5.6115,321984
5.61888,521192
5.62625,1451575
5.63363,3483946
5.64102,6028571
5.64838,7900954
5.65577,8126084
5.66313,5224746
5.67052,2636551
5.6779,3120448
5.68527,4379747
5.69265,3951640
5.70002,1859239
5.7074,601438
5.71477,219990
5.72215,270201
5.72953,1310185
5.7369,3872568
5.74428,6648035
5.75165,6800752
5.75903,3352546
5.76642,789148
5.77378,273776
5.78117,191479
5.78853,158405
5.79592,130260
5.80328,125387
5.81067,132930
5.81805,115402
5.82542,99285
5.8328,265137
5.84017,1274747
5.84755,3297009
5.85493,4684907
5.8623,3628076
5.86968,1292232
5.87705,397666
5.88443,234813
5.8918,186272
5.89918,136453
5.90657,102640
5.91393,104852
5.92132,130838
5.92868,153369
5.93607,145664
5.94345,137127
5.95082,138612
5.9582,142830
5.96557,146690
5.97295,177726
5.98032,230678
5.9877,215412
5.99508,213546
6.00245,312832
6.00983,411373
6.0172,900060
6.02458,2785759
6.03197,6087487
6.03933,9991141
6.04672,13714129
6.05408,17688076
6.06147,20419840
6.06883,7129817
6.07622,1663827
6.0836,771799
6.09097,287044
6.09835,195978
6.10572,150858
6.1131,173156
6.12048,266288
6.12785,305668
6.13523,221118
6.1426,136941
6.14998,124741
6.15735,131025
6.16473,121381
6.17212,112494
6.17948,187165
6.18687,418948
6.19423,543095
6.20162,491029
6.20898,581109
6.21637,667317
6.22375,498217
6.23112,301835
6.2385,194113
6.24587,157317
6.25325,174880
6.26063,181662
6.268,183940
6.27538,315265
6.28275,408656
6.29013,299908
6.2975,207368
6.30488,215198
6.31227,430998
6.31963,1221084
6.32702,1877759
6.33438,1404348
6.34177,1543403
6.34915,3661314
6.35652,6501926
6.3639,8055379
6.37127,3515395
6.37865,878712
6.38602,786469
6.3934,495435
6.40078,226901
6.40815,227702
6.41553,320356
6.4229,303872
6.43028,263732
6.43767,222014
6.44503,186171
6.45242,237135
6.45978,520289
6.46717,823086
6.47453,756961
6.48192,482246
6.4893,453782
6.49667,564727
6.50405,1037321
6.51142,2390867
6.5188,4103754
6.52618,3814897
6.53355,1325057
6.54093,352975
6.5483,215773
6.55568,182192
6.56305,155064
6.57043,145236
6.57782,141048
6.58518,150709
6.59257,164811
6.59993,213187
6.60732,246640
6.6147,384460
6.62207,1083099
6.62945,2307369
6.63682,2864955
6.6442,1859625
6.65157,893882
6.65895,1327887
6.66633,3397860
6.6737,6002330
6.68108,5944068
6.68845,2561755
6.69583,1110683
6.70322,1186037
6.71058,1192293
6.71797,1195981
6.72533,2760801
6.73272,5553175
6.74008,9026390
6.74747,11579614
6.75485,7771462
6.76222,1107022
6.7696,793519
6.77697,720553
6.78435,892265
6.79172,1639232
6.7991,1616735
6.80648,896598
6.81385,588646
6.82123,441756
6.8286,665851
6.83598,1837240
6.84337,2779981
6.85073,1717861
6.85812,993194
6.86548,1369054
6.87287,1212374
6.88023,481861
6.88762,344970
6.895,301722
6.90237,220097
6.90975,175432
6.91712,203715
6.9245,385631
6.93188,826586
6.93925,1780339
6.94663,3802170
6.954,5589884
6.96138,4493994
6.96875,1711991
6.97613,2311677
6.98352,4886144
6.99088,5705108
6.99827,2053064
7.00563,283004
7.01302,209939
7.0204,321966
7.02777,835364
7.03515,1889393
7.04252,3166644
7.0499,5665379
7.05727,9047532
7.06465,8902278
7.07203,1949494
7.0794,1789566
7.08678,3360018
7.09415,3569181
7.10153,1812351
7.10892,1151527
7.11628,727230
7.12367,516780
7.13103,535462
7.13842,401089
7.14578,336818
7.15317,311128
7.16055,388999
7.16792,1034723
7.1753,2082745
7.18267,2308726
7.19005,963936
7.19743,380150
7.2048,453031
7.21218,789518
7.21955,1185557
7.22693,1145607
7.2343,764821
7.24168,367507
7.24907,347978
7.25643,1117820
7.26382,2575881
7.27118,2534433
7.27857,857306
7.28595,298703
7.29332,380656
7.3007,531461
7.30807,529989
7.31545,557082
7.32282,550518
7.3302,569635
7.33758,734186
7.34495,650868
7.35233,614530
7.3597,527794
7.36708,383186
7.37445,419387
7.38183,733869
7.38922,2095265
7.39658,4523211
7.40397,6531472
7.41133,5219042
7.41872,1711289
7.4261,1107823
7.43347,2885074
7.44085,6252045
7.44822,9626953
7.4556,7074307
7.46297,1019959
7.47035,438116
7.47773,418779
7.4851,313901
7.49248,283872
7.49985,401143
7.50723,544658
7.51462,412570
7.52198,237690
7.52937,310780
7.53673,559524
7.54412,558669
7.55148,358261
7.55887,267103
7.56625,283375
7.57362,617613
7.581,1387380
7.58837,1642396
7.59575,790087
7.60313,485846
7.6105,618219
7.61788,1246696
7.62525,2374054
7.63263,2169042
7.64,1106240
7.64738,878023
7.65477,2163176
7.66213,5064944
7.66952,6824431
7.67688,3732761
7.68427,1089533
7.69165,685974
7.69902,629218
7.7064,828169
7.71377,843225
7.72115,453936
7.72852,429697
7.7359,714767
7.74328,1126889
7.75065,2555352
7.75803,5445861
7.7654,8192620
7.77278,7878059
7.78017,5911041
7.78753,3491029
7.79492,1350668
7.80228,737597
7.80967,700298
7.81703,803939
7.82442,1302909
7.8318,2561851
7.83917,3322342
7.84655,2520622
7.85392,1179465
7.8613,505280
7.86868,382647
7.87605,571585
7.88343,936472
7.8908,1288559
7.89818,1336985
7.90555,2112640
7.91293,2974799
7.92032,1869722
7.92768,573269
7.93507,367788
7.94243,340484
7.94982,289538
7.95718,247537
7.96457,246599
7.97195,389266
7.97932,760453
7.9867,1604752
7.99407,1968842
8.00145,914599
8.00883,298557
8.0162,190363
8.02358,150126
8.03095,136665
8.03833,147309
8.0457,199273
8.05308,228065
8.06047,187605
8.06783,189429
8.07522,241811
8.08258,247825
8.08997,245539
8.09735,344419
8.10472,664186
8.1121,1396867
8.11947,1790722
8.12685,1258090
8.13422,914371
8.1416,1508587
8.14898,2165897
8.15635,3194128
8.16373,4944383
8.1711,5077579
8.17848,6212064
8.18587,6974831
8.19323,3020385
8.20062,2573900
8.20798,3893603
8.21537,3448047
8.22273,2209419
8.23012,2227006
8.2375,2632827
8.24487,2469782
8.25225,1579397
8.25962,489755
8.267,310757
8.27438,279161
8.28175,243394
8.28913,269575
8.2965,345983
8.30388,327213
8.31125,349504
8.31863,963502
8.32602,1782369
8.33338,1379693
8.34077,564611
8.34813,271656
8.35552,191956
8.3629,236439
8.37027,383073
8.37765,382478
8.38502,287929
8.3924,289673
8.39977,334686
8.40715,485371
8.41453,681769
8.4219,591991
8.42928,302655
8.43665,190064
8.44403,177124
8.45142,213148
8.45878,462197
8.46617,973717
8.47353,1072219
8.48092,596906
8.48828,331698
8.49567,295993
8.50305,300949
8.51042,211196
8.5178,169297
8.52517,205542
8.53255,311745
8.53992,411528
8.5473,288112
8.55468,170066
8.56205,198440
8.56943,278325
8.5768,322857
8.58418,658131
8.59157,1414150
8.59893,1966190
8.60632,1659538
8.61368,644281
8.62107,210577
8.62843,196824
8.63582,289525
8.6432,391161
8.65057,556044
8.65795,644514
8.66532,594565
8.6727,428211
8.68008,350340
8.68745,371308
8.69483,415060
8.7022,520796
8.70958,480532
8.71695,322218
8.72433,413826
8.73172,454999
8.73908,464620
8.74647,595156
8.75383,568898
8.76122,805733
8.7686,1666184
8.77597,1851972
8.78335,807728
8.79072,223315
8.7981,139894
8.80547,235626
8.81285,324216
8.82023,427503
8.8276,639292
8.83498,576506
8.84235,324585
8.84973,211549
8.85712,179940
8.86448,187378
8.87187,228881
8.87923,389928
8.88662,755028
8.89398,1239984
8.90137,1086678
8.90875,502409
8.91612,276715
8.9235,225002
8.93087,231907
8.93825,380608
8.94563,680004
8.953,663815
8.96038,359047
8.96775,201147
8.97513,265438
8.9825,337363
8.98988,335630
8.99727,326638
9.00463,281888
9.01202,275350
9.01938,315673
9.02677,403301
9.03415,398536
9.04152,408364
9.0489,605956
9.05627,646462
9.06365,341742
9.07102,216945
9.0784,471333
9.08578,662069
9.09315,388792
9.10053,165541
9.1079,190193
9.11528,300969
9.12267,281480
9.13003,157752
9.13742,118251
9.14478,181148
9.15217,302489
9.15953,489377
9.16692,699360
9.1743,726197
9.18167,509022
9.18905,402142
9.19642,361598
9.2038,220874
9.21117,146870
9.21855,146338
9.22593,140683
9.2333,130149
9.24068,207565
9.24805,767835
9.25543,2367550
9.26282,4648976
9.27018,4534074
9.27757,1178829
9.28493,192472
9.29232,133438
9.29968,115409
9.30707,123675
9.31445,144580
9.32182,153369
9.3292,138388
9.33657,120994
9.34395,119784
9.35133,136724
9.3587,174061
9.36608,149119
9.37345,111860
9.38083,90295
9.3882,85263
9.39558,207466
9.40297,805622
9.41033,1961020
9.41772,2242134
9.42508,1012297
9.43247,297086
9.43985,112561
9.44722,92714
9.4546,116999
9.46197,132668
9.46935,176145
9.47672,224061
9.4841,181248
9.49148,154654
9.49885,210278
9.50623,276820
9.5136,220759
9.52098,137947
9.52837,95835
9.53573,79086
9.54312,77935
9.55048,89507
9.55787,98174
9.56523,99234
9.57262,111401
9.58,120703
9.58737,120972
9.59475,153368
9.60212,199431
9.6095,165345
9.61688,132162
9.62425,143082
9.63163,133762
9.639,121044
9.64638,135163
9.65375,148733
9.66113,166005
9.66852,156402
9.67588,117139
9.68327,103755
9.69063,113998
9.69802,136628
9.7054,129179
9.71277,117464
9.72015,116309
9.72752,95352
9.7349,84975
9.74227,88235
9.74965,106638
9.75703,114796
9.7644,93411
9.77178,75528
9.77915,81248
9.78653,86763
9.7939,103891
9.80128,130808
9.80867,122977
9.81603,106464
9.82342,89448
9.83078,87870
9.83817,102549
9.84555,98540
9.85292,86257
9.8603,81599
9.86767,70586
9.87505,65043
9.88242,73028
9.8898,83491
9.89718,87478
9.90455,93126
9.91193,87903
9.9193,92842
9.92668,88063
9.93407,80546
9.94143,80292
9.94882,78617
9.95618,72539
9.96357,73685
9.97093,89180
9.97832,94497
9.9857,76032
9.99307,68913
10.0005,77022
10.0078,95307
10.0152,99591
10.0226,79660
10.03,70933
10.0373,81216
10.0447,85000
10.0521,77108
10.0595,77714
10.0668,97559
10.0742,147747
10.0816,154851
10.089,138460
10.0963,169113
10.1037,159042
10.1111,102258
10.1185,76281
10.1259,69919
10.1332,86719
10.1406,117273
10.148,206716
10.1554,312999
10.1627,254870
10.1701,169265
10.1775,140746
10.1849,95786
10.1922,73296
10.1996,78972
10.207,84831
10.2144,81296
10.2217,71460
10.2291,61914
10.2365,71459
10.2439,138039
10.2513,302357
10.2586,376919
10.266,335206
10.2734,341772
10.2808,251976
10.2881,128994
10.2955,102052
10.3029,99422
10.3103,84955
10.3176,82688
10.325,91386
10.3324,87909
10.3398,77892
10.3471,83636
10.3545,86681
10.3619,97378
10.3693,189460
10.3766,427853
10.384,551778
10.3914,370826
10.3988,152505
10.4062,101972
10.4135,178323
10.4209,316311
10.4283,260815
10.4357,129716
10.443,78257
10.4504,77798
10.4578,80932
10.4652,78182
10.4725,78569
10.4799,85810
10.4873,87024
10.4947,88590
10.502,92008
10.5094,87332
10.5168,77605
10.5242,69671
10.5316,57571
10.5389,53375
10.5463,64344
10.5537,109461
10.5611,203833
10.5684,235735
10.5758,154566
10.5832,115994
10.5906,113709
10.5979,95514
10.6053,75327
10.6127,68625
10.6201,70632
10.6274,70691
10.6348,67040
10.6422,59888
10.6496,65192
10.657,64708
10.6643,57271
10.6717,53238
10.6791,62280
10.6865,109620
10.6938,160627
10.7012,144725
10.7086,88138
10.716,65244
10.7233,54733
10.7307,53477
10.7381,50076
10.7455,49992
10.7528,49355
10.7602,53876
10.7676,56376
10.775,54329
10.7824,49390
10.7897,47145
10.7971,46908
10.8045,49797
10.8119,49140
10.8192,46388
10.8266,43327
10.834,38980
10.8414,37786
10.8487,37874
10.8561,42495
10.8635,43146
10.8709,43187
10.8782,47964
10.8856,46194
10.893,41166
10.9004,44759
10.9077,44318
10.9151,62320
10.9225,94464
10.9299,99628
10.9373,80779
10.9446,58331
10.952,59707
10.9594,70401
10.9668,73637
10.9741,71875
10.9815,58982
10.9889,45812
10.9963,44479
11.0036,63209
11.011,85585
11.0184,76838
11.0258,51149
11.0331,44835
11.0405,49902
11.0479,51038
11.0553,42642
11.0627,38833
11.07,39250
11.0774,44165
11.0848,44816
11.0922,50104
11.0995,75562
11.1069,95090
11.1143,91802
11.1217,65867
11.129,56124
11.1364,50991
11.1438,38681
11.1512,31390
11.1585,31866
11.1659,34808
11.1733,49588
11.1807,63474
11.1881,56374
11.1954,42413
11.2028,32410
11.2102,29388
11.2176,31850
11.2249,34957
11.2323,34083
11.2397,52787
11.2471,90686
11.2544,90480
11.2618,81793
11.2692,108250
11.2766,107315
11.2839,71416
11.2913,42123
11.2987,27659
11.3061,31566
11.3134,40523
11.3208,62925
11.3282,103934
11.3356,95755
11.343,52501
11.3503,33298
11.3577,37920
11.3651,52624
11.3725,54860
11.3798,39208
11.3872,28777
11.3946,25649
11.402,25885
11.4093,24249
11.4167,23728
11.4241,22988
11.4315,25408
11.4388,39474
11.4462,70835
11.4536,80082
11.461,54183
11.4684,30750
11.4757,25985
11.4831,42339
11.4905,77082
11.4979,77361
11.5052,42187
11.5126,25253
11.52,22261
11.5274,22595
11.5347,25643
11.5421,26256
11.5495,22526
11.5569,20841
11.5642,24434
11.5716,39202
11.579,47142
11.5864,45157
11.5938,54404
11.6011,50501
11.6085,39988
11.6159,44551
11.6233,41713
11.6306,30227
11.638,25272
11.6454,26693
11.6528,32793
11.6601,32640
11.6675,34247
11.6749,32149
11.6823,26352
11.6896,25303
11.697,25381
11.7044,26029
11.7118,25926
11.7191,25721
11.7265,32229
11.7339,46119
11.7413,53389
11.7487,48732
11.756,34214
11.7634,41178
11.7708,73880
11.7782,84628
11.7855,63154
11.7929,56271
11.8003,55150
11.8077,42828
11.815,35841
11.8224,37601
11.8298,38946
11.8372,30593
11.8445,23962
11.8519,28597
11.8593,59346
11.8667,92102
11.8741,76458
11.8814,51296
11.8888,54325
11.8962,69808
11.9036,64647
11.9109,46514
11.9183,35139
11.9257,44233
11.9331,72213
11.9404,90780
11.9478,80111
11.9552,58342
11.9626,48683
11.9699,56647
11.9773,62517
11.9847,56833
11.9921,38783
11.9995,31742
12.0068,37273
12.0142,43508
12.0216,43339
12.029,32849
12.0363,27379
12.0437,31736
12.0511,38581
12.0585,41378
12.0658,39304
12.0732,42027
12.0806,49671
12.088,55782
12.0953,61198
12.1027,67697
12.1101,67191
12.1175,49536
12.1248,34698
12.1322,28148
12.1396,29806
12.147,27674
12.1544,24431
12.1617,23243
12.1691,22186
12.1765,22806
12.1839,27337
12.1912,31717
12.1986,29710
12.206,26601
12.2134,26156
12.2207,27157
12.2281,31895
12.2355,33788
12.2429,29166
12.2502,28545
12.2576,26723
12.265,28309
12.2724,31975
12.2798,35462
12.2871,32165
12.2945,29835
12.3019,35089
12.3093,44713
12.3166,41245
12.324,30956
12.3314,28271
12.3388,29326
12.3461,29685
12.3535,30845
12.3609,33757
12.3683,34220
12.3756,32275
12.383,32027
12.3904,31123
12.3978,27738
12.4052,25675
12.4125,29067
12.4199,38194
12.4273,41547
12.4347,35858
12.442,35414
12.4494,41749
12.4568,45535
12.4642,35187
12.4715,27805
12.4789,30455
12.4863,33367
12.4937,34486
12.501,34730
12.5084,36448
12.5158,39886
12.5232,40851
12.5306,51834
12.5379,75017
12.5453,74481
12.5527,59729
12.5601,52379
12.5674,45657
12.5748,45915
12.5822,47432
12.5896,45197
12.5969,43845
12.6043,44708
12.6117,40035
12.6191,35911
12.6264,42535
12.6338,54820
12.6412,54042
12.6486,40549
12.6559,33021
12.6633,42687
12.6707,63217
12.6781,74924
12.6855,75786
12.6928,77581
12.7002,65708
12.7076,59644
12.715,53638
12.7223,52593
12.7297,68572
12.7371,71165
12.7445,56129
12.7518,44480
12.7592,44144
12.7666,41638
12.774,41315
12.7813,45162
12.7887,49002
12.7961,48764
12.8035,52062
12.8109,52548
12.8182,49669
12.8256,48041
12.833,44165
12.8404,43231
12.8477,41388
12.8551,36435
12.8625,38128
12.8699,55764
12.8772,75208
12.8846,65062
12.892,46747
12.8994,42945
12.9067,40895
12.9141,41687
12.9215,41085
12.9289,41486
12.9363,41592
12.9436,36083
12.951,36948
12.9584,46136
12.9658,44577
12.9731,43780
12.9805,42354
12.9879,37622
12.9953,32218
13.0026,30154
13.01,28193
13.0174,26258
13.0248,26055
13.0321,25728
13.0395,25775
13.0469,25511
13.0543,25199
13.0616,26776
13.069,27146
13.0764,28598
13.0838,28924
13.0912,29185
13.0985,28405
13.1059,28229
13.1133,31216
13.1207,37278
13.128,38532
13.1354,34871
13.1428,28960
13.1502,27987
13.1575,27527
13.1649,29863
13.1723,33630
13.1797,32859
13.187,31589
13.1944,32670
13.2018,32361
13.2092,27338
13.2166,23950
13.2239,24612
13.2313,27929
13.2387,32717
13.2461,37183
13.2534,37087
13.2608,32638
13.2682,27797
13.2756,24902
13.2829,25998
13.2903,28025
13.2977,30159
13.3051,27043
13.3124,24300
13.3198,27815
13.3272,42636
13.3346,54013
13.342,47908
13.3493,34627
13.3567,26702
13.3641,25634
13.3715,26355
13.3788,27776
13.3862,28898
13.3936,28608
13.401,28128
13.4083,26515
13.4157,31125
13.4231,30670
13.4305,27729
13.4378,23394
13.4452,22916
13.4526,20180
13.46,19304
13.4673,19816
13.4747,20174
13.4821,20018
13.4895,20187
13.4969,29782
13.5042,49281
13.5116,70115
13.519,67690
13.5264,52116
13.5337,33069
13.5411,28914
13.5485,38841
13.5559,47733
13.5632,40469
13.5706,36607
13.578,41273
13.5854,46451
13.5927,41722
13.6001,33434
13.6075,28074
13.6149,28715
13.6223,27763
13.6296,22579
13.637,18558
13.6444,17892
13.6518,22015
13.6591,24941
13.6665,22432
13.6739,20534
13.6813,20956
13.6886,21405
13.696,24650
13.7034,27746
13.7108,29023
13.7181,27609
13.7255,24656
13.7329,23007
13.7403,24164
13.7477,24612
13.755,20976
13.7624,17842
13.7698,18170
13.7772,18244
13.7845,17473
13.7919,18632
13.7993,19127
13.8067,17630
13.814,17678
13.8214,18318
13.8288,20874
13.8362,24037
13.8435,22754
13.8509,18711
13.8583,16887
13.8657,16302
13.873,15771
13.8804,15685
13.8878,14815
13.8952,15597
13.9026,18285
13.9099,19844
13.9173,19959
13.9247,18418
13.9321,18116
13.9394,19596
13.9468,19282
13.9542,16192
13.9616,14852
13.9689,14552
13.9763,13829
13.9837,14409
13.9911,14001
13.9984,13469
14.0058,13193
14.0132,13569
14.0206,14388
14.028,13898
14.0353,14689
14.0427,14516
14.0501,14373
14.0575,14930
14.0648,14658
14.0722,13803
14.0796,13888
14.087,14785
14.0943,15237
14.1017,15448
14.1091,20067
14.1165,35327
14.1238,47624
14.1312,38887
14.1386,27607
14.146,22486
14.1534,29726
14.1607,46122
14.1681,49965
14.1755,35047
14.1829,25603
14.1902,21544
14.1976,19671
14.205,19947
14.2124,19432
14.2197,17880
14.2271,17870
14.2345,19971
14.2419,19453
14.2492,16688
14.2566,14990
14.264,16280
14.2714,16478
14.2788,19571
14.2861,26878
14.2935,32790
14.3009,32100
14.3083,28248
14.3156,25815
14.323,31884
14.3304,32556
14.3378,21871
14.3451,16570
14.3525,16414
14.3599,15858
14.3673,15627
14.3746,16185
14.382,16771
14.3894,14928
14.3968,13621
14.4041,13382
14.4115,13464
14.4189,13497
14.4263,11762
14.4337,11724
14.441,12407
14.4484,14854
14.4558,16066
14.4632,14373
14.4705,14128
14.4779,15241
14.4853,15946
14.4927,18723
14.5,21212
14.5074,17712
14.5148,14377
14.5222,12726
14.5295,12350
14.5369,13784
14.5443,15618
14.5517,16094
14.5591,16198
14.5664,16133
14.5738,19164
14.5812,19032
14.5886,17960
14.5959,17168
14.6033,16951
14.6107,15807
14.6181,14554
14.6254,12701
14.6328,11928
14.6402,11350
14.6476,11530
14.6549,11124
14.6623,12253
14.6697,12592
14.6771,12695
14.6845,12648
14.6918,12714
14.6992,13285
14.7066,13233
14.714,12980
14.7213,12381
14.7287,12341
14.7361,11157
14.7435,10970
14.7508,10689
14.7582,10707
14.7656,11087
14.773,10674
14.7803,10857
14.7877,11632
14.7951,13698
14.8025,17512
14.8098,22156
14.8172,20184
14.8246,15736
14.832,13284
14.8394,13744
14.8467,21075
14.8541,27160
14.8615,22391
14.8689,16159
14.8762,15985
14.8836,18584
14.891,17445
14.8984,14437
14.9057,13214
14.9131,11911
14.9205,11164
14.9279,11341
14.9352,12179
14.9426,14928
14.95,18022
14.9574,24093
14.9648,22843
14.9721,17364
14.9795,14103
14.9869,16433
14.9943,19562
15.0016,20015
15.009,16326
15.0164,13568
15.0238,13341
15.0311,15273
15.0385,15572
15.0459,14215
15.0533,12365
15.0606,13558
15.068,17682
15.0754,18115
15.0828,16079
15.0902,13503
15.0975,11330
15.1049,10774
15.1123,10407
15.1197,10591
15.127,10889
15.1344,11906
15.1418,12471
15.1492,13000
15.1565,13295
15.1639,14642
15.1713,12173
15.1787,11809
15.186,10470
15.1934,10681
15.2008,11637
15.2082,13591
15.2155,14219
15.2229,13013
15.2303,12054
15.2377,12233
15.2451,12497
15.2524,13413
15.2598,14950
15.2672,16281
15.2746,14992
15.2819,14568
15.2893,14752
15.2967,13895
15.3041,13170
15.3114,12624
15.3188,12519
15.3262,12786
15.3336,11815
15.3409,12012
15.3483,13157
15.3557,12825
15.3631,13097
15.3705,11389
15.3778,11109
15.3852,9766
15.3926,9511
15.4,9710
15.4073,11501
15.4147,11345
15.4221,10856
15.4295,10791
15.4368,11110
15.4442,11920
15.4516,15910
15.459,16715
15.4663,14314
15.4737,11906
15.4811,10120
15.4885,10506
15.4959,10209
15.5032,9649
15.5106,10460
15.518,10754
15.5254,11237
15.5327,12946
15.5401,13041
15.5475,11366
15.5549,10373
15.5622,10567
15.5696,12012
15.577,14180
15.5844,12743
15.5917,11459
15.5991,10746
15.6065,11422
15.6139,11443
15.6213,11583
15.6286,12252
15.636,13132
15.6434,12994
15.6508,11793
15.6581,11208
15.6655,12114
15.6729,13292
15.6803,12252
15.6876,11233
15.695,11504
15.7024,10837
15.7098,10774
15.7171,11657
15.7245,10617
15.7319,10732
15.7393,10845
15.7466,10831
15.754,10442
15.7614,11618
15.7688,13385
15.7762,13999
15.7835,12531
15.7909,12228
15.7983,12057
15.8057,12943
15.813,12373
15.8204,12076
15.8278,11515
15.8352,10521
15.8425,10129
15.8499,10227
15.8573,11327
15.8647,12440
15.872,12794
15.8794,12961
15.8868,12660
15.8942,13656
15.9016,13550
15.9089,12988
15.9163,11830
15.9237,11320
15.9311,11493
15.9384,10480
15.9458,10369
15.9532,10469
15.9606,11291
15.9679,10628
15.9753,10926
15.9827,12161
15.9901,12694
15.9974,12055
16.0048,10806
16.0122,11000
16.0196,11790
16.0269,12556
16.0343,12201
16.0417,11660
16.0491,10975
16.0565,11200
16.0638,12380
16.0712,12273
16.0786,11950
16.086,10623
16.0933,10746
16.1007,11113
16.1081,11145
16.1155,10945
16.1228,9814
16.1302,10583
16.1376,10924
16.145,11543
16.1523,11185
16.1597,10134
16.1671,10633
16.1745,11116
16.1819,10832
16.1892,10724
16.1966,10566
16.204,10428
16.2113,10655
16.2187,10736
16.2261,10550
16.2335,10173
16.2408,10054
16.2482,9783
16.2556,10249
16.263,10332
16.2704,10532
16.2777,10010
16.2851,10375
16.2925,10199
16.2999,10243
16.3073,10702
16.3146,10683
16.322,10483
16.3294,10777
16.3367,10603
16.3441,10330
16.3515,10164
16.3589,10073
16.3663,10165
16.3736,10164
16.381,10038
16.3884,10910
16.3958,10931
16.4031,10429
16.4105,10352
16.4179,9777
16.4253,10146
16.4326,10441
16.44,11029
16.4474,10778
16.4548,11419
16.4622,12240
16.4695,12382
16.4769,12028
16.4843,10730
16.4917,11147
16.499,11064
16.5064,11023
16.5138,11474
16.5212,11420
16.5285,11125
16.5359,10819
16.5433,11351
16.5507,10819
16.558,10614
16.5654,11581
16.5728,11369
16.5802,10523
16.5876,10599
16.5949,11259
16.6023,11030
16.6097,12343
16.617,13191
16.6244,14821
16.6318,15493
16.6392,15158
16.6466,15036
16.6539,15610
16.6613,14412
16.6687,13316
16.6761,13338
16.6834,13581
16.6908,12526
16.6982,11991
16.7056,10938
16.7129,10757
16.7203,10141
16.7277,10294
16.7351,10334
16.7425,10127
16.7498,10348
16.7572,10308
16.7646,10234
16.772,10158
16.7793,9579
16.7867,10066
16.7941,10209
16.8015,10527
16.8088,10243
16.8162,10135
16.8236,10342
16.831,9936
16.8383,9768
16.8457,10257
16.8531,9908
16.8605,9963
16.8679,10233
16.8752,10128
16.8826,9737
16.89,9653
16.8973,10519
16.9047,9844
16.9121,10050
16.9195,9748
16.9269,10094
16.9342,9924
16.9416,9911
16.949,9651
16.9564,9804
16.9637,9793
16.9711,10730
16.9785,10710
16.9859,10630
16.9933,11598
17.0006,11076
17.008,10762
17.0154,11064
17.0227,10585
17.0301,10600
17.0375,10634
17.0449,10106
17.0523,10547
17.0596,10395
17.067,10235
17.0744,10770
17.0818,10602
17.0891,10595
17.0965,10810
17.1039,10366
17.1113,10305
17.1186,10181
17.126,10647
17.1334,11361
17.1408,10636
17.1482,11025
17.1555,10456
17.1629,10757
17.1703,10486
17.1777,10561
17.185,10673
17.1924,11091
17.1998,10799
17.2072,10948
17.2145,10638
17.2219,10334
17.2293,10367
17.2367,10747
17.2441,10432
17.2514,10238
17.2588,10824
17.2662,10046
17.2736,10181
17.2809,10423
17.2883,9978
17.2957,10447
17.303,10302
17.3104,9971
17.3178,10448
17.3252,10320
17.3326,10571
17.3399,10880
17.3473,10502
17.3547,10247
17.3621,9873
17.3695,10267
17.3768,10040
17.3842,9650
17.3916,10920
17.3989,10240
17.4063,10667
17.4137,9791
17.4211,9685
17.4285,9804
17.4358,10202
17.4432,10900
17.4506,10754
17.458,11324
17.4653,10941
17.4727,11558
17.4801,11702
17.4875,11658
