D:\Data GC-MS-77B\2021\9 SEPTEMBER\12-09-21\45889-21 1 DM.D 12 Sep 21  04:41 pm
Start of data points
1.29385,5136
1.3006,5166
1.30733,5354
1.31408,5411
1.32082,62255
1.32757,1263841
1.3343,4823664
1.34105,4498752
1.3478,4677416
1.35453,4759955
1.36128,4838747
1.36802,4910029
1.37477,4945705
1.3815,4982001
1.38825,5187357
1.395,5458132
1.40173,5438812
1.40848,4843569
1.41522,3547415
1.42197,2398746
1.4287,1839422
1.43545,1554135
1.4422,1328574
1.44893,1107305
1.45568,879363
1.46242,668938
1.46917,495253
1.4759,362958
1.48265,266587
1.4894,190108
1.51025,218324
1.51763,157318
1.525,116556
1.53238,88987
1.53977,69164
1.54713,53825
1.55452,47216
1.56188,40017
1.56927,35612
1.57663,32445
1.58402,30063
1.5914,27577
1.59877,26528
1.60615,27450
1.61352,30442
1.6209,34248
1.62828,36158
1.63565,36548
1.64303,34759
1.6504,31347
1.65778,29481
1.66515,27572
1.67253,25181
1.67992,24513
1.68728,23187
1.69467,22798
1.70203,23708
1.70942,22745
1.7168,23579
1.72417,22621
1.73155,22364
1.73892,22210
1.7463,21591
1.75367,21245
1.76105,22070
1.76843,22276
1.7758,22123
1.78318,22469
1.79055,21912
1.79793,22617
1.80532,21858
1.81268,22276
1.82007,22290
1.82743,22429
1.83482,21555
1.84218,21711
1.84957,22470
1.85695,22736
1.86432,22255
1.8717,23745
1.87907,23533
1.88645,23452
1.89382,24132
1.9012,24865
1.90858,24366
1.91595,22961
1.92333,22243
1.9307,21519
1.93808,20991
1.94547,21145
1.95283,21440
1.96022,20538
1.96758,20682
1.97497,20081
1.98233,20668
1.98972,20727
1.9971,20319
2.00447,21279
2.01185,22036
2.01922,21925
2.0266,22193
2.03398,22630
2.04135,22710
2.04873,21841
2.0561,21871
2.06348,21847
2.07085,21137
2.07823,20998
2.08562,21088
2.09298,20651
2.10037,20359
2.10773,19281
2.11512,20381
2.1225,19913
2.12987,19736
2.13725,20080
2.14462,19504
2.152,19880
2.15937,19892
2.16675,19261
2.17413,19118
2.1815,19855
2.18888,19658
2.19625,20255
2.20363,19946
2.21102,19240
2.21838,20538
2.22577,20729
2.23313,21426
2.24052,21786
2.24788,21349
2.25527,20303
2.26265,19773
2.27002,18506
2.2774,18717
2.28477,18663
2.29215,18754
2.29953,18709
2.3069,19103
2.31428,18863
2.32165,18533
2.32903,18351
2.3364,18468
2.34378,19117
2.35117,18588
2.35853,18844
2.36592,18432
2.37328,18523
2.38067,18622
2.38805,18177
2.39542,18436
2.4028,18511
2.41017,19382
2.41755,20351
2.42492,19855
2.4323,20043
2.43968,19837
2.44705,19711
2.45443,19547
2.4618,18378
2.46918,18432
2.47655,17998
2.48393,18796
2.49132,20317
2.49868,23024
2.50607,27920
2.51343,31670
2.52082,32168
2.5282,30393
2.53557,29990
2.54295,26639
2.55032,23684
2.5577,21371
2.56507,20375
2.57245,19414
2.57983,23804
2.5872,30629
2.59458,33891
2.60195,31963
2.60933,27954
2.61672,23764
2.62408,20219
2.63147,18516
2.63883,18499
2.64622,17778
2.65358,18614
2.66097,18678
2.66835,19672
2.67572,21032
2.6831,25803
2.69047,51265
2.69785,90183
2.70523,105465
2.7126,91526
2.71998,69387
2.72735,45972
2.73473,30761
2.7421,24486
2.74948,21131
2.75687,20320
2.76423,19782
2.77162,18855
2.77898,19230
2.78637,19108
2.79375,19515
2.80112,22965
2.8085,29248
2.81587,32844
2.82325,30670
2.83062,26396
2.838,23073
2.84538,22227
2.85275,22237
2.86013,22752
2.8675,23190
2.87488,21689
2.88227,21633
2.88963,19552
2.89702,19865
2.90438,19385
2.91177,18997
2.91913,19394
2.92652,19895
2.9339,19469
2.94127,19427
2.94865,19097
2.95602,18902
2.9634,19884
2.97078,19691
2.97815,19236
2.98553,18776
2.9929,18089
3.00028,18176
3.00765,18084
3.01503,19411
3.02242,19960
3.02978,20550
3.03717,19936
3.04453,21395
3.05192,25029
3.05928,31414
3.06667,31522
3.07405,28592
3.08142,24320
3.0888,21137
3.09617,19602
3.10355,19563
3.11093,21603
3.1183,28797
3.12568,33689
3.13305,35297
3.14043,41634
3.1478,50005
3.15518,49473
3.16257,40170
3.16993,31455
3.17732,26370
3.18468,23524
3.19207,21446
3.19945,19004
3.20682,18826
3.2142,18077
3.22157,19891
3.22895,23799
3.23632,27509
3.2437,25977
3.25108,23414
3.25845,20212
3.26583,19028
3.2732,18360
3.28058,18078
3.28797,18567
3.29533,19240
3.30272,19015
3.31008,19940
3.31747,26402
3.32483,56251
3.33222,97219
3.3396,98848
3.34697,70557
3.35435,39961
3.36172,24720
3.3691,20744
3.37648,30309
3.38385,61656
3.39123,89242
3.3986,80761
3.40598,55463
3.41335,35222
3.42073,24457
3.42812,23531
3.43548,34020
3.44287,52874
3.45023,58369
3.45762,45143
3.465,32003
3.47237,23877
3.47975,21818
3.48712,25180
3.4945,43961
3.50187,65592
3.50925,67291
3.51663,59981
3.524,51994
3.53138,72469
3.53875,168275
3.54613,256502
3.55352,232588
3.56088,137992
3.56827,65120
3.57563,38004
3.58302,49998
3.59038,81627
3.59777,88804
3.60515,68329
3.61252,47977
3.6199,33770
3.62727,24541
3.63465,21567
3.64202,19750
3.6494,20359
3.65678,24496
3.66415,31701
3.67153,32985
3.6789,30324
3.68628,28883
3.69367,28968
3.70103,28518
3.70842,23462
3.71578,19872
3.72317,18579
3.73053,18513
3.73792,18419
3.7453,19250
3.75267,21091
3.76005,21868
3.76742,23518
3.7748,28018
3.78218,28345
3.78955,25490
3.79693,24687
3.8043,28498
3.81168,30644
3.81905,27968
3.82643,25864
3.83382,22518
3.84118,20520
3.84857,20316
3.85593,20834
3.86332,21891
3.8707,22295
3.87807,23401
3.88545,30672
3.89282,57822
3.9002,77591
3.90757,59112
3.91495,36210
3.92233,25685
3.9297,23864
3.93708,23685
3.94445,22094
3.95183,21034
3.95922,20533
3.96658,21931
3.97397,26978
3.98133,33763
3.98872,33527
3.99608,26225
4.00347,20589
4.01085,20717
4.01822,23496
4.0256,26073
4.03297,27650
4.04035,25184
4.04773,22955
4.0551,21899
4.06248,21322
4.06985,22059
4.07723,24451
4.0846,24976
4.09198,21882
4.09937,19854
4.10673,19984
4.11412,21127
4.12148,20928
4.12887,19344
4.13625,19032
4.14362,21742
4.151,29395
4.15837,42660
4.16575,47442
4.17312,36965
4.1805,31336
4.18788,26859
4.19525,23531
4.20263,22403
4.21,22731
4.21738,23646
4.22475,26346
4.23213,33375
4.23952,39156
4.24688,34089
4.25427,25496
4.26163,23633
4.26902,24753
4.2764,24293
4.28377,22724
4.29115,25131
4.29852,26301
4.3059,29504
4.31327,43634
4.32065,65773
4.32803,60166
4.3354,39149
4.34278,28634
4.35015,25515
4.35753,27053
4.36492,27401
4.37228,24618
4.37967,22244
4.38703,23917
4.39442,27186
4.40178,27330
4.40917,26360
4.41655,25879
4.42392,28488
4.4313,28269
4.43867,24492
4.44605,21931
4.45343,21894
4.4608,23373
4.46818,24910
4.47555,23967
4.48293,22644
4.4903,22702
4.49768,22795
4.50507,22982
4.51243,23417
4.51982,24879
4.52718,23923
4.53457,26700
4.54195,29053
4.54932,25736
4.5567,23228
4.56407,23578
4.57145,31202
4.57882,34671
4.5862,31839
4.59358,26851
4.60095,28899
4.60833,28536
4.6157,28099
4.62308,31897
4.63047,30876
4.63783,25439
4.64522,26890
4.65258,83329
4.65997,245495
4.66733,323772
4.67472,212293
4.6821,86462
4.68947,34241
4.69685,25796
4.70422,24291
4.7116,22527
4.71898,19777
4.72635,22425
4.73373,32133
4.7411,112766
4.74848,480772
4.75585,969606
4.76323,835765
4.77062,361198
4.77798,105280
4.78537,42706
4.79273,31138
4.80012,27674
4.8075,25526
4.81487,23977
4.82225,25318
4.82962,28359
4.837,32201
4.84437,32594
4.85175,29049
4.85913,25081
4.8665,25598
4.87388,27651
4.88125,26523
4.88863,23312
4.896,20958
4.90338,22096
4.91077,26830
4.91813,26674
4.92552,26098
4.93288,28965
4.94027,32370
4.94765,30197
4.95502,31016
4.9624,30934
4.96977,32348
4.97715,33174
4.98452,26100
4.9919,26267
4.99928,27928
5.00665,24219
5.01403,21330
5.0214,22009
5.02878,37615
5.03617,152664
5.04353,412215
5.05092,439180
5.05828,199301
5.06567,57793
5.07303,32296
5.08042,41533
5.0878,71239
5.09517,68149
5.10255,35439
5.10992,22835
5.1173,22467
5.12468,22184
5.13205,21928
5.13943,20580
5.1468,19399
5.15418,19988
5.16155,21778
5.16893,23787
5.17632,24492
5.18368,24839
5.19107,22896
5.19843,24645
5.20582,30754
5.2132,30079
5.22057,23959
5.22795,23360
5.23532,27434
5.2427,27926
5.25007,24680
5.25745,21600
5.26483,19717
5.2722,20260
5.27958,21557
5.28695,23406
5.29433,26745
5.30172,31808
5.30908,30128
5.31647,24139
5.32383,20890
5.33122,20199
5.33858,21152
5.34597,21470
5.35335,21238
5.36072,24571
5.3681,29120
5.37547,32793
5.38285,38121
5.39023,38582
5.3976,30316
5.40498,26517
5.41235,32894
5.41973,53202
5.4271,56270
5.43448,44488
5.44187,34556
5.44923,28984
5.45662,30381
5.46398,26200
5.47137,24066
5.47873,28524
5.48612,39199
5.4935,46343
5.50087,38200
5.50825,26862
5.51562,27074
5.523,27322
5.53038,22331
5.53775,21358
5.54513,21968
5.5525,23780
5.55988,29990
5.56725,32897
5.57463,28415
5.58202,26307
5.58938,26605
5.59677,24215
5.60413,21693
5.61152,21810
5.6189,23512
5.62627,23624
5.63365,22097
5.64102,23636
5.6484,24485
5.65577,23652
5.66315,23652
5.67053,22724
5.6779,21910
5.68528,23169
5.69265,24820
5.70003,25616
5.70742,22952
5.71478,20916
5.72217,19960
5.72953,22673
5.73692,31798
5.74428,41262
5.75167,44025
5.75905,72216
5.76642,129205
5.7738,103207
5.78117,45533
5.78855,29311
5.79593,37890
5.8033,39792
5.81068,51898
5.81805,75259
5.82543,51910
5.8328,31891
5.84018,63717
5.84757,206970
5.85493,464969
5.86232,441710
5.86968,245992
5.87707,205330
5.88445,123674
5.89182,54868
5.8992,32482
5.90657,27094
5.91395,31255
5.92132,77436
5.9287,219658
5.93608,333435
5.94345,212610
5.95083,65472
5.9582,27496
5.96558,26769
5.97297,29797
5.98033,30059
5.98772,30155
5.99508,29381
6.00247,26221
6.00983,25812
6.01722,26223
6.0246,23618
6.03197,21455
6.03935,20895
6.04672,21629
6.0541,22479
6.06147,35547
6.06885,104847
6.07623,189346
6.0836,139422
6.09098,55257
6.09835,32499
6.10573,28921
6.11312,25526
6.12048,23991
6.12787,25984
6.13523,26640
6.14262,26015
6.14998,23376
6.15737,21951
6.16475,22936
6.17212,30662
6.1795,34381
6.18687,32978
6.19425,38367
6.20163,38009
6.209,30005
6.21638,63994
6.22375,319893
6.23113,736246
6.2385,611687
6.24588,203514
6.25327,78088
6.26063,50063
6.26802,30442
6.27538,25848
6.28277,23494
6.29015,22332
6.29752,23682
6.3049,26726
6.31227,26622
6.31965,23816
6.32702,21563
6.3344,20151
6.34178,19889
6.34915,20718
6.35653,22922
6.3639,21973
6.37128,20453
6.37867,20683
6.38603,27645
6.39342,32043
6.40078,28914
6.40817,31531
6.41553,33560
6.42292,30731
6.4303,29923
6.43767,26974
6.44505,23300
6.45242,21842
6.4598,22782
6.46718,23984
6.47455,29264
6.48193,30251
6.4893,24932
6.49668,22428
6.50405,24053
6.51143,30448
6.51882,31100
6.52618,40494
6.53357,50874
6.54093,46865
6.54832,43467
6.5557,40216
6.56307,86493
6.57045,190042
6.57782,173340
6.5852,77553
6.59257,30044
6.59995,23284
6.60733,23880
6.6147,28842
6.62208,28381
6.62945,25904
6.63683,29235
6.6442,37762
6.65158,35587
6.65897,28547
6.66633,31439
6.67372,42847
6.68108,40573
6.68847,33472
6.69585,33408
6.70322,30561
6.7106,29516
6.71797,29550
6.72535,44030
6.73272,75028
6.7401,69219
6.74748,36031
6.75485,23186
6.76223,20998
6.7696,21150
6.77698,22854
6.78437,20931
6.79173,20094
6.79912,22319
6.80648,23898
6.81387,23210
6.82123,21392
6.82862,26548
6.836,35326
6.84337,34149
6.85075,48227
6.85812,73284
6.8655,80573
6.87288,119929
6.88025,140870
6.88763,106522
6.895,92450
6.90238,55769
6.90975,42193
6.91713,74561
6.92452,106459
6.93188,109105
6.93927,82311
6.94663,132909
6.95402,209667
6.9614,158350
6.96877,108132
6.97615,76226
6.98352,48112
6.9909,34644
6.99827,41908
7.00565,42504
7.01303,33408
7.0204,26324
7.02778,33853
7.03515,71141
7.04253,88382
7.04992,61891
7.05728,64732
7.06467,57255
7.07203,36515
7.07942,28289
7.08678,26069
7.09417,24239
7.10155,22610
7.10892,24271
7.1163,35601
7.12367,47719
7.13105,47141
7.13843,40134
7.1458,33541
7.15318,48812
7.16055,112219
7.16793,138717
7.1753,94720
7.18268,119149
7.19007,135299
7.19743,73970
7.20482,33324
7.21218,29588
7.21957,35927
7.22693,49019
7.23432,55881
7.2417,59965
7.24907,137766
7.25645,239798
7.26382,181735
7.2712,76057
7.27858,45088
7.28595,59719
7.29333,89390
7.3007,74918
7.30808,44177
7.31545,34501
7.32283,35601
7.33022,42317
7.33758,51499
7.34497,89465
7.35233,128995
7.35972,81140
7.3671,42265
7.37447,34404
7.38185,33654
7.38922,33502
7.3966,36381
7.40397,40347
7.41135,46666
7.41873,52680
7.4261,45803
7.43348,38140
7.44085,38037
7.44823,44534
7.45562,45337
7.46298,41073
7.47037,38735
7.47773,42844
7.48512,71219
7.49248,103437
7.49987,91530
7.50725,62583
7.51462,54918
7.522,70335
7.52937,83989
7.53675,83411
7.54413,65281
7.5515,42917
7.55888,41262
7.56625,42750
7.57363,47836
7.581,89274
7.58838,218190
7.59577,306319
7.60313,179245
7.61052,68733
7.61788,37246
7.62527,54657
7.63265,205510
7.64002,434621
7.6474,345009
7.65477,123826
7.66215,57388
7.66952,46654
7.6769,34360
7.68428,30077
7.69165,37131
7.69903,55312
7.7064,74884
7.71378,78273
7.72117,60267
7.72853,49940
7.73592,44550
7.74328,43499
7.75067,41372
7.75803,35758
7.76542,41036
7.7728,51854
7.78017,61591
7.78755,75011
7.79492,109614
7.8023,113463
7.80967,73367
7.81705,61605
7.82443,56316
7.8318,52613
7.83918,69111
7.84655,134452
7.85393,292367
7.86132,289503
7.86868,214010
7.87607,233211
7.88343,145671
7.89082,83599
7.89818,92024
7.90557,96378
7.91295,107265
7.92032,136707
7.9277,153382
7.93507,158124
7.94245,97776
7.94983,112358
7.9572,183853
7.96458,238691
7.97195,392592
7.97933,441142
7.9867,319945
7.99408,198035
8.00147,140641
8.00883,238706
8.01622,302556
8.02358,159130
8.03097,72841
8.03835,108317
8.04572,157278
8.0531,124625
8.06047,91010
8.06785,126236
8.07522,148805
8.0826,203960
8.08998,243368
8.09735,173504
8.10473,125148
8.1121,98906
8.11948,106412
8.12687,115635
8.13423,132794
8.14162,100259
8.14898,57409
8.15637,48360
8.16373,45182
8.17112,45208
8.1785,58625
8.18587,105924
8.19325,189986
8.20062,171249
8.208,83550
8.21538,51846
8.22275,41402
8.23013,35601
8.2375,36318
8.24488,37996
8.25225,37755
8.25963,37047
8.26702,40328
8.27438,51297
8.28177,69397
8.28913,91630
8.29652,124752
8.3039,128300
8.31127,80420
8.31865,71818
8.32602,106107
8.3334,145004
8.34077,280802
8.34815,510944
8.35553,491414
8.3629,300893
8.37028,324290
8.37765,390449
8.38503,237481
8.3924,128306
8.39978,99679
8.40717,90142
8.41453,110167
8.42192,182724
8.42928,301680
8.43667,323726
8.44405,197901
8.45142,201538
8.4588,361399
8.46617,345900
8.47355,156602
8.48092,89969
8.4883,100775
8.49568,99004
8.50305,86958
8.51043,107837
8.5178,165069
8.52518,154260
8.53257,111602
8.53993,99232
8.54732,137182
8.55468,228142
8.56207,187461
8.56943,100857
8.57682,84186
8.5842,80853
8.59157,99666
8.59895,141615
8.60632,133746
8.6137,98387
8.62108,65696
8.62845,45855
8.63583,45017
8.6432,75439
8.65058,117472
8.65795,131780
8.66533,131481
8.67272,111573
8.68008,92988
8.68747,89392
8.69483,126731
8.70222,176826
8.7096,145713
8.71697,124591
8.72435,98516
8.73172,72405
8.7391,64356
8.74647,64188
8.75385,61221
8.76123,58517
8.7686,55181
8.77598,63628
8.78335,90081
8.79073,93065
8.79812,103569
8.80548,156710
8.81287,185038
8.82023,156074
8.82762,144255
8.83498,178533
8.84237,173878
8.84975,128256
8.85712,84845
8.8645,79372
8.87187,112645
8.87925,129895
8.88663,165639
8.894,158682
8.90138,117351
8.90875,154137
8.91613,141541
8.9235,94196
8.93088,89916
8.93827,106516
8.94563,138609
8.95302,156738
8.96038,124430
8.96777,135159
8.97515,231215
8.98252,220114
8.9899,132996
8.99727,138179
9.00465,128415
9.01202,96537
9.0194,104929
9.02678,99921
9.03415,65151
9.04153,44736
9.0489,46656
9.05628,72438
9.06365,122156
9.07103,111064
9.07842,74800
9.08578,80552
9.09317,77913
9.10053,70241
9.10792,95587
9.1153,133303
9.12267,107779
9.13005,64497
9.13742,66693
9.1448,83544
9.15217,80352
9.15955,61641
9.16693,57466
9.1743,65031
9.18168,60471
9.18905,60861
9.19643,82041
9.20382,85368
9.21118,62811
9.21857,43005
9.22593,39385
9.23332,40800
9.24068,50945
9.24807,65033
9.25545,76654
9.26282,99414
9.2702,113509
9.27757,92175
9.28495,59245
9.29233,60735
9.2997,83254
9.30708,77364
9.31445,54860
9.32183,53629
9.3292,60642
9.33658,80130
9.34397,82584
9.35133,59258
9.35872,52426
9.36608,54836
9.37347,53765
9.38085,53798
9.38822,61144
9.3956,76814
9.40297,67966
9.41035,55964
9.41772,59820
9.4251,93835
9.43248,180878
9.43985,199705
9.44723,125850
9.4546,72353
9.46198,55368
9.46937,54249
9.47673,54670
9.48412,60474
9.49148,69538
9.49887,63588
9.50623,50870
9.51362,50725
9.521,46753
9.52837,41695
9.53575,40173
9.54312,43447
9.5505,45250
9.55788,50367
9.56525,48838
9.57263,39356
9.58,33255
9.58738,38532
9.59475,63925
9.60213,110939
9.60952,112508
9.61688,67491
9.62427,46379
9.63163,42786
9.63902,41889
9.64638,43593
9.65377,43023
9.66115,39016
9.66852,37929
9.6759,40244
9.68327,43518
9.69065,41637
9.69803,41012
9.7054,42365
9.71278,36278
9.72015,39016
9.72753,61611
9.7349,77101
9.74228,55883
9.74967,34252
9.75703,29706
9.76442,28140
9.77178,30819
9.77917,37033
9.78655,42570
9.79392,41965
9.8013,47017
9.80867,50787
9.81605,44213
9.82342,42929
9.8308,52165
9.83818,50364
9.84555,38793
9.85293,35570
9.8603,37974
9.86768,40303
9.87507,42177
9.88243,45055
9.88982,49347
9.89718,49097
9.90457,48843
9.91193,45586
9.91932,47211
9.9267,49798
9.93407,44915
9.94145,45867
9.94882,45652
9.9562,42802
9.96358,40164
9.97095,34293
9.97833,31674
9.9857,37507
9.99308,39575
10.0005,35995
10.0078,37474
10.0152,41973
10.0226,42626
10.03,38780
10.0373,38665
10.0447,43606
10.0521,42118
10.0595,35876
10.0669,30626
10.0742,32018
10.0816,40132
10.089,46796
10.0964,43943
10.1037,41598
10.1111,39126
10.1185,34250
10.1259,30692
10.1332,34956
10.1406,40651
10.148,42730
10.1554,38625
10.1627,35993
10.1701,40049
10.1775,47354
10.1849,45647
10.1923,40344
10.1996,36652
10.207,36119
10.2144,37760
10.2218,38711
10.2291,41218
10.2365,46896
10.2439,48863
10.2513,45575
10.2586,41025
10.266,44448
10.2734,46167
10.2808,44094
10.2881,42932
10.2955,43053
10.3029,38982
10.3103,37592
10.3176,45313
10.325,50128
10.3324,48133
10.3398,49443
10.3472,54551
10.3545,50756
10.3619,46705
10.3693,45665
10.3767,43945
10.384,41677
10.3914,39702
10.3988,37891
10.4062,39304
10.4135,39921
10.4209,41247
10.4283,42585
10.4357,50912
10.443,63077
10.4504,66503
10.4578,50666
10.4652,41709
10.4726,39961
10.4799,38022
10.4873,37412
10.4947,39842
10.5021,43138
10.5094,42563
10.5168,41413
10.5242,41180
10.5316,37558
10.5389,36492
10.5463,40202
10.5537,43577
10.5611,44649
10.5684,50803
10.5758,63634
10.5832,63862
10.5906,49650
10.598,43737
10.6053,48687
10.6127,51806
10.6201,44658
10.6275,38221
10.6348,37083
10.6422,38262
10.6496,38417
10.657,40442
10.6643,38648
10.6717,39944
10.6791,41704
10.6865,42568
10.6938,41456
10.7012,41144
10.7086,39539
10.716,34300
10.7234,32520
10.7307,32038
10.7381,33779
10.7455,37500
10.7529,42645
10.7602,41582
10.7676,39396
10.775,38177
10.7824,42016
10.7897,40557
10.7971,36186
10.8045,33488
10.8119,34178
10.8192,32600
10.8266,32107
10.834,33459
10.8414,34298
10.8487,32422
10.8561,30894
10.8635,31332
10.8709,31908
10.8783,32279
10.8856,32396
10.893,34171
10.9004,35058
10.9078,32300
10.9151,30913
10.9225,29802
10.9299,29716
10.9373,27803
10.9446,27489
10.952,27379
10.9594,28588
10.9668,27289
10.9741,25778
10.9815,26159
10.9889,27863
10.9963,28072
11.0037,27728
11.011,26718
11.0184,26797
11.0258,25888
11.0332,27557
11.0405,32205
11.0479,38390
11.0553,42582
11.0627,40690
11.07,34015
11.0774,27412
11.0848,26296
11.0922,28672
11.0995,30432
11.1069,28227
11.1143,27352
11.1217,26979
11.1291,26599
11.1364,25807
11.1438,25654
11.1512,25513
11.1586,26813
11.1659,26990
11.1733,27523
11.1807,26803
11.1881,26585
11.1954,24320
11.2028,23207
11.2102,23308
11.2176,23516
11.2249,23625
11.2323,24015
11.2397,23818
11.2471,23646
11.2544,23297
11.2618,23663
11.2692,22510
11.2766,23157
11.284,24008
11.2913,26972
11.2987,27084
11.3061,24160
11.3135,22345
11.3208,21798
11.3282,22124
11.3356,22421
11.343,22969
11.3503,22437
11.3577,21687
11.3651,21154
11.3725,21517
11.3798,21777
11.3872,22577
11.3946,21290
11.402,21998
11.4094,20875
11.4167,20948
11.4241,21443
11.4315,21607
11.4389,20925
11.4462,22511
11.4536,23365
11.461,23525
11.4684,25060
11.4757,25165
11.4831,23825
11.4905,22356
11.4979,21564
11.5052,23021
11.5126,23717
11.52,24840
11.5274,24294
11.5348,22188
11.5421,20721
11.5495,20558
11.5569,21143
11.5643,21095
11.5716,20962
11.579,20953
11.5864,20906
11.5938,20506
11.6011,19997
11.6085,19714
11.6159,19607
11.6233,20411
11.6306,20483
11.638,19814
11.6454,20714
11.6528,22722
11.6601,22200
11.6675,21318
11.6749,21422
11.6823,21818
11.6897,21402
11.697,20099
11.7044,19654
11.7118,19596
11.7192,20500
11.7265,20270
11.7339,19580
11.7413,20139
11.7487,19028
11.756,19916
11.7634,20134
11.7708,19551
11.7782,19822
11.7855,20247
11.7929,20654
11.8003,20917
11.8077,20455
11.8151,19805
11.8224,20288
11.8298,20434
11.8372,20920
11.8446,20031
11.8519,19747
11.8593,20484
11.8667,19654
11.8741,20471
11.8814,20107
11.8888,19654
11.8962,20539
11.9036,21411
11.9109,20925
11.9183,20269
11.9257,20805
11.9331,20897
11.9405,20830
11.9478,20612
11.9552,20282
11.9626,21012
11.97,21992
11.9773,21877
11.9847,21817
11.9921,20745
11.9995,20022
12.0068,20390
12.0142,18839
12.0216,19647
12.029,20050
12.0363,19329
12.0437,20073
12.0511,21417
12.0585,21080
12.0658,20112
12.0732,20513
12.0806,20126
12.088,20605
12.0954,19719
12.1027,20452
12.1101,20710
12.1175,20672
12.1249,20333
12.1322,20476
12.1396,20415
12.147,20597
12.1544,19967
12.1617,20284
12.1691,20233
12.1765,20265
12.1839,20417
12.1912,20087
12.1986,20326
12.206,20768
12.2134,20443
12.2208,19645
12.2281,19494
12.2355,19874
12.2429,20284
12.2503,19928
12.2576,20262
12.265,20392
12.2724,21268
12.2798,21455
12.2871,20600
12.2945,20565
12.3019,20743
12.3093,20466
12.3166,20675
12.324,20119
12.3314,20036
12.3388,20112
12.3462,20402
12.3535,19949
12.3609,19704
12.3683,18832
12.3757,19706
12.383,19809
12.3904,20168
12.3978,20388
12.4052,22994
12.4125,25963
12.4199,26112
12.4273,21953
12.4347,19284
12.442,19603
12.4494,19188
12.4568,20251
12.4642,19796
12.4716,19780
12.4789,19932
12.4863,19602
12.4937,19353
12.5011,20041
12.5084,20092
12.5158,19951
12.5232,19580
12.5306,19927
12.5379,19784
12.5453,19642
12.5527,19961
12.5601,20219
12.5674,19647
12.5748,19861
12.5822,19665
12.5896,20035
12.5969,19240
12.6043,19512
12.6117,19601
12.6191,20350
12.6265,20550
12.6338,20450
12.6412,21089
12.6486,19638
12.656,19787
12.6633,20485
12.6707,20962
12.6781,20773
12.6855,20488
12.6928,19550
12.7002,19955
12.7076,21193
12.715,20767
12.7223,20424
12.7297,20764
12.7371,20662
12.7445,20283
12.7519,19764
12.7592,19890
12.7666,20389
12.774,19776
12.7814,19821
12.7887,20586
12.7961,20496
12.8035,20120
12.8109,20530
12.8182,20342
12.8256,20333
12.833,20425
12.8404,20829
12.8477,19990
12.8551,20068
12.8625,19897
12.8699,20058
12.8773,20094
12.8846,19947
12.892,20281
12.8994,20510
12.9068,20079
12.9141,19839
12.9215,20166
12.9289,20580
12.9363,20797
12.9436,19438
12.951,20074
12.9584,20232
12.9658,20288
12.9731,20341
12.9805,20124
12.9879,20024
12.9953,20272
13.0026,20236
13.01,20687
13.0174,20451
13.0248,20434
13.0322,20487
13.0395,20425
13.0469,20251
13.0543,20362
13.0617,20956
13.069,20120
13.0764,20432
13.0838,20383
13.0912,21137
13.0985,20509
13.1059,21322
13.1133,20550
13.1207,21146
13.128,20408
13.1354,21305
13.1428,19937
13.1502,20504
13.1576,20474
13.1649,20742
13.1723,20834
13.1797,20860
13.1871,20048
13.1944,20003
13.2018,20828
13.2092,19909
13.2166,20916
13.2239,20567
13.2313,20332
13.2387,20472
13.2461,20714
13.2534,19721
13.2608,20490
13.2682,20231
13.2756,20291
13.283,19880
13.2903,19898
13.2977,19951
13.3051,20699
13.3125,20649
13.3198,19147
13.3272,20417
13.3346,20508
13.342,19735
13.3493,20355
13.3567,20526
13.3641,20144
13.3715,20655
13.3788,20088
13.3862,21048
13.3936,21177
13.401,21658
13.4083,21646
13.4157,20643
13.4231,20845
13.4305,20755
13.4379,20732
13.4452,20306
13.4526,19698
13.46,20406
13.4674,21755
13.4747,21975
13.4821,20603
13.4895,20891
13.4969,20309
13.5042,21090
13.5116,20114
13.519,19980
13.5264,20983
13.5337,20291
13.5411,21208
13.5485,20688
13.5559,20789
13.5633,20584
13.5706,22132
13.578,24812
13.5854,25711
13.5928,23609
13.6001,20968
13.6075,21052
13.6149,21040
13.6223,20498
13.6296,21220
13.637,20702
13.6444,20632
13.6518,20866
13.6591,20835
13.6665,21019
13.6739,21578
13.6813,20739
13.6887,21298
13.696,20786
13.7034,21360
13.7108,20981
13.7182,20841
13.7255,20855
13.7329,21735
13.7403,21513
13.7477,21281
13.755,21370
13.7624,21261
13.7698,21128
13.7772,20693
13.7845,20884
13.7919,21235
13.7993,21538
13.8067,20927
13.814,21225
13.8214,21551
13.8288,21197
13.8362,22091
13.8436,21312
13.8509,21953
13.8583,21897
13.8657,21043
13.8731,20849
13.8804,21587
13.8878,21949
13.8952,21403
13.9026,21377
13.9099,21607
13.9173,21751
13.9247,21820
13.9321,21986
13.9394,21636
13.9468,22360
13.9542,21392
13.9616,22031
13.969,21739
13.9763,21952
13.9837,22340
13.9911,21455
13.9985,21055
14.0058,22033
14.0132,22248
14.0206,21948
14.028,22250
14.0353,21985
14.0427,22358
14.0501,22088
14.0575,22241
14.0648,22237
14.0722,22000
14.0796,23162
14.087,23471
14.0944,22830
14.1017,22741
14.1091,23044
14.1165,23210
14.1239,22499
14.1312,22131
14.1386,22360
14.146,22088
14.1534,22121
14.1607,22125
14.1681,22639
14.1755,21846
14.1829,22983
14.1902,22890
14.1976,23784
14.205,22893
14.2124,23107
14.2198,23017
14.2271,23006
14.2345,23030
14.2419,22425
14.2493,22679
14.2566,23214
14.264,23843
14.2714,23655
14.2788,23924
14.2861,23710
14.2935,23004
14.3009,23331
14.3083,23094
14.3156,23416
14.323,23513
14.3304,23911
14.3378,24082
14.3451,23468
14.3525,23133
14.3599,23465
14.3673,24428
14.3747,23578
14.382,23813
14.3894,24227
14.3968,23955
14.4042,23923
14.4115,25056
14.4189,24958
14.4263,24970
14.4337,24718
14.441,24823
14.4484,24630
14.4558,24455
14.4632,25230
14.4705,24909
14.4779,24853
14.4853,25139
14.4927,25350
14.5001,25727
14.5074,26300
14.5148,25769
14.5222,25269
14.5296,25630
14.5369,26629
14.5443,26123
14.5517,25577
14.5591,26209
14.5664,26289
14.5738,25646
14.5812,27507
14.5886,26652
14.5959,29437
14.6033,28514
14.6107,27320
14.6181,26777
14.6255,26659
14.6328,26924
14.6402,27360
14.6476,26602
14.655,27161
14.6623,27597
14.6697,25967
14.6771,26859
14.6845,26394
14.6918,26934
14.6992,28163
14.7066,28557
14.714,28649
14.7213,27902
14.7287,27762
14.7361,27866
14.7435,28299
14.7508,28369
14.7582,28557
14.7656,28524
14.773,28022
14.7804,28138
14.7877,28591
14.7951,28185
14.8025,28550
14.8099,28738
14.8172,28640
14.8246,28381
14.832,28590
14.8394,28633
14.8467,28718
14.8541,29270
14.8615,28751
14.8689,28928
14.8762,28894
14.8836,30190
14.891,29718
14.8984,29793
14.9058,29167
14.9131,30820
14.9205,29963
14.9279,30215
14.9353,29596
14.9426,30545
14.95,30714
14.9574,30566
14.9648,30738
14.9721,31008
14.9795,31490
14.9869,31203
14.9943,31369
15.0016,32325
15.009,31679
15.0164,32612
15.0238,32372
15.0312,33000
15.0385,33659
15.0459,33290
15.0533,33549
15.0607,33581
15.068,33632
15.0754,33333
15.0828,34201
15.0902,33556
15.0975,34475
15.1049,34153
15.1123,33757
15.1197,33200
15.127,35157
15.1344,35613
15.1418,34151
15.1492,34959
15.1565,35104
15.1639,34295
15.1713,35090
15.1787,35272
15.1861,35418
15.1934,36237
15.2008,35824
15.2082,35978
15.2156,36300
15.2229,36650
15.2303,36896
15.2377,36959
15.2451,38174
15.2524,39220
15.2598,39749
15.2672,38338
15.2746,37198
15.2819,39245
15.2893,39738
15.2967,39406
15.3041,41516
15.3115,42206
15.3188,43605
15.3262,43953
15.3336,43785
15.341,42354
15.3483,42348
15.3557,40803
15.3631,41261
15.3705,41777
15.3778,41483
15.3852,42803
15.3926,42625
15.4,44210
15.4073,43177
15.4147,46215
15.4221,48071
15.4295,46036
15.4369,44726
15.4442,45035
15.4516,44151
15.459,44450
15.4664,45783
15.4737,45911
15.4811,45526
15.4885,44936
15.4959,46174
15.5032,45594
15.5106,47205
15.518,46920
15.5254,46739
15.5327,47480
15.5401,49014
15.5475,47862
15.5549,48605
15.5622,49374
15.5696,48501
15.577,49092
15.5844,50291
15.5918,50825
15.5991,50591
15.6065,51641
15.6139,51967
15.6213,52569
15.6286,51604
15.636,51949
15.6434,53160
15.6508,52598
15.6581,53381
15.6655,53385
15.6729,54617
15.6803,54916
15.6876,53735
15.695,55649
15.7024,55043
15.7098,56052
15.7172,56126
15.7245,57216
15.7319,56697
15.7393,57316
15.7467,59115
15.754,58551
15.7614,57965
15.7688,59120
15.7762,59754
15.7835,58673
15.7909,59851
15.7983,60626
15.8057,61544
15.813,61661
15.8204,62303
15.8278,61997
15.8352,63096
15.8426,63601
15.8499,62744
15.8573,64762
15.8647,65262
15.8721,65568
15.8794,65507
15.8868,66381
15.8942,68347
15.9016,67038
15.9089,68139
15.9163,69487
15.9237,69739
15.9311,70532
15.9384,71378
15.9458,71793
15.9532,72915
15.9606,72059
15.968,72560
15.9753,73594
15.9827,73695
15.9901,75365
15.9975,76856
16.0048,76995
16.0122,77262
16.0196,78699
16.0269,79725
16.0343,80823
16.0417,81344
16.0491,81449
16.0565,82626
16.0638,81929
16.0712,83036
16.0786,82689
16.086,84206
16.0933,89634
16.1007,88736
16.1081,87777
16.1155,85230
16.1229,85770
16.1302,87063
16.1376,87019
16.145,86696
16.1523,87814
16.1597,87784
16.1671,88990
16.1745,88817
16.1819,89161
16.1892,90558
16.1966,92872
16.204,89562
16.2114,90798
16.2187,90850
16.2261,89605
16.2335,89733
16.2409,89933
16.2482,90896
16.2556,90464
16.263,90530
16.2704,91845
16.2778,92571
16.2851,92615
16.2925,92177
16.2999,92139
16.3073,93057
16.3146,93608
16.322,95200
16.3294,91832
16.3368,96740
16.3441,94543
16.3515,96362
16.3589,95343
16.3663,95763
16.3737,95232
16.381,94749
16.3884,94237
16.3958,96972
16.4032,96142
16.4105,96532
16.4179,95778
16.4253,95156
16.4326,96537
16.44,96607
16.4474,96071
16.4548,96431
16.4622,96773
16.4695,96767
16.4769,98941
16.4843,96358
16.4917,96984
16.499,99481
16.5064,98557
16.5138,99389
16.5212,99502
16.5285,100452
16.5359,100117
16.5433,99052
16.5507,100128
16.5581,101787
16.5654,100958
16.5728,101720
16.5802,102075
16.5876,102415
16.5949,105253
16.6023,103460
16.6097,102375
16.6171,102592
16.6244,102262
16.6318,100416
16.6392,101174
16.6466,101782
16.6539,101444
16.6613,102792
16.6687,105619
16.6761,104289
16.6835,103568
16.6908,104206
16.6982,102912
16.7056,103361
16.7129,103106
16.7203,104296
16.7277,105731
16.7351,108222
16.7425,112039
16.7498,115010
16.7572,112544
16.7646,110085
16.772,106873
16.7794,105573
16.7867,107476
16.7941,104794
16.8015,107379
16.8089,106394
16.8162,107109
16.8236,109270
16.831,109140
16.8383,107821
16.8457,108109
16.8531,111556
16.8605,110719
16.8679,112512
16.8752,112562
16.8826,113819
16.89,114221
16.8974,117527
16.9047,117862
16.9121,118918
16.9195,119876
16.9269,119913
16.9342,121009
16.9416,121540
16.949,122901
16.9564,123502
16.9638,127046
16.9711,126380
16.9785,128218
16.9859,128040
16.9933,125646
17.0006,127383
17.008,128991
17.0154,128146
17.0228,128701
17.0301,127313
17.0375,128012
17.0449,127259
17.0523,126703
17.0597,125961
17.067,124612
17.0744,124617
17.0818,123127
17.0892,121753
17.0965,119348
17.1039,119531
17.1113,120138
17.1186,119764
17.126,120843
17.1334,116697
17.1408,115610
17.1482,116331
17.1555,114424
17.1629,115844
17.1703,113526
17.1777,113269
17.1851,114008
17.1924,114568
17.1998,114037
17.2072,114443
17.2145,113734
17.2219,114687
17.2293,113706
17.2367,115769
17.2441,113291
17.2514,115135
17.2588,111642
17.2662,111967
17.2736,114390
17.2809,115668
17.2883,114972
17.2957,113802
17.3031,113675
17.3104,113878
17.3178,114137
17.3252,114632
17.3326,113644
17.34,115287
17.3473,112377
17.3547,112793
17.3621,113024
17.3695,112824
17.3768,114654
17.3842,114844
17.3916,113281
17.3989,110791
17.4063,112656
17.4137,113527
17.4211,113652
17.4285,113691
17.4358,112835
17.4432,113238
17.4506,112951
17.458,111572
17.4654,111623
17.4727,114962
17.4801,115721
17.4875,117596
