D:\Data GC-MS-77B\2021\9 SEPTEMBER\09-09-21\46072-21-3 YKK.D 09 Sep 21  07:48 am
Start of data points
1.29393,5629
1.30068,5727
1.30743,5777
1.31417,33503
1.32092,1186199
1.32765,4934849
1.3344,4514967
1.34113,4757174
1.34788,4891789
1.35463,5025307
1.36137,5176602
1.36812,5286711
1.37485,5278374
1.3816,5438587
1.38833,5773981
1.39508,5996815
1.40182,5735908
1.40857,4687415
1.41532,3271256
1.42205,2402125
1.4288,1960855
1.43553,1642860
1.44228,1352952
1.44902,1083581
1.45577,836251
1.46252,630550
1.46925,463327
1.476,340432
1.48273,247499
1.48948,180129
1.51035,204421
1.51772,152961
1.5251,118405
1.53247,92080
1.53985,75486
1.54722,73152
1.5546,125463
1.56198,137554
1.56935,133644
1.57673,119321
1.5841,100177
1.59148,79071
1.59887,62936
1.60623,59778
1.61362,89500
1.62098,108015
1.62837,103536
1.63573,96253
1.64312,89327
1.6505,78002
1.65787,63594
1.66525,54089
1.67262,47678
1.68,58131
1.68738,64133
1.69475,60654
1.70213,57376
1.7095,50934
1.71688,55953
1.72425,115751
1.73163,151188
1.73902,148542
1.74638,135485
1.75377,112497
1.76113,86584
1.76852,64054
1.7759,46743
1.78327,35477
1.79065,29847
1.79802,27194
1.8054,24496
1.81277,24480
1.82015,26257
1.82753,28598
1.8349,29363
1.84228,42018
1.84965,64921
1.85703,108806
1.86442,183533
1.87178,209197
1.87917,297184
1.88653,325957
1.89392,290079
1.90128,233905
1.90867,173829
1.91605,120839
1.92342,86230
1.9308,82730
1.93817,96643
1.94555,93361
1.95292,82938
1.9603,69485
1.96768,56737
1.97505,48339
1.98243,41826
1.9898,36586
1.99718,33234
2.00457,32097
2.01193,30315
2.01932,34149
2.02668,49777
2.03407,56430
2.04143,54205
2.04882,51790
2.0562,46892
2.06357,42534
2.07095,41772
2.07832,43226
2.0857,48975
2.09308,46206
2.10045,46057
2.10783,44925
2.1152,41583
2.12258,38030
2.12995,37297
2.13733,35043
2.14472,33146
2.15208,29801
2.15947,28614
2.16683,33920
2.17422,41901
2.1816,45141
2.18897,43841
2.19635,39390
2.20372,35758
2.2111,34811
2.21847,41271
2.22585,65361
2.23323,76627
2.2406,74806
2.24798,68127
2.25535,56489
2.26273,45203
2.27012,35366
2.27748,30158
2.28487,25602
2.29223,23656
2.29962,22773
2.30698,21960
2.31437,22202
2.32175,22019
2.32912,22576
2.3365,22141
2.34387,23080
2.35125,23389
2.35863,23414
2.366,22743
2.37338,23483
2.38075,21954
2.38813,22820
2.3955,28222
2.40288,40969
2.41027,54231
2.41763,55252
2.42502,50223
2.43238,42777
2.43977,34474
2.44715,29027
2.45452,26098
2.4619,25521
2.46927,24581
2.47665,28872
2.48402,64740
2.4914,132626
2.49878,175499
2.50615,192366
2.51353,172417
2.5209,135971
2.52828,106376
2.53565,81481
2.54303,58399
2.55042,43771
2.55778,33754
2.56517,28350
2.57253,34752
2.57992,68555
2.5873,94556
2.59467,92027
2.60205,78296
2.60942,56934
2.6168,40675
2.62417,30932
2.63155,26100
2.63893,25385
2.6463,26250
2.65368,27248
2.66105,33597
2.66843,47463
2.67582,54251
2.68318,52776
2.69057,54172
2.69793,59491
2.70532,56500
2.71268,53602
2.72007,55036
2.72745,52610
2.73482,46486
2.7422,38498
2.74957,31539
2.75695,26350
2.76433,23817
2.7717,23627
2.77908,25708
2.78645,25821
2.79383,30897
2.8012,53656
2.80858,75160
2.81597,73554
2.82333,62444
2.83072,46603
2.83808,43025
2.84547,48943
2.85285,59869
2.86022,64112
2.8676,58968
2.87497,49680
2.88235,39029
2.88972,32449
2.8971,29312
2.90448,28570
2.91185,26823
2.91923,28731
2.9266,33076
2.93398,35243
2.94137,32870
2.94873,30335
2.95612,31138
2.96348,36010
2.97087,39546
2.97823,35498
2.98562,31218
2.993,27121
3.00037,23479
3.00775,23614
3.01512,24708
3.0225,26393
3.02988,26967
3.03725,32398
3.04463,54115
3.052,99167
3.05938,146137
3.06675,142560
3.07413,110040
3.08152,70947
3.08888,42741
3.09627,30530
3.10363,28176
3.11102,33396
3.11838,44952
3.12577,46901
3.13315,49909
3.14052,58697
3.1479,57661
3.15527,49420
3.16265,43870
3.17003,51266
3.1774,53781
3.18478,48022
3.19215,36988
3.19953,28332
3.2069,24521
3.21428,23543
3.22167,34427
3.22903,54977
3.23642,62427
3.24378,54929
3.25117,41858
3.25855,31200
3.26592,25615
3.2733,23925
3.28067,25061
3.28805,26463
3.29542,28169
3.3028,29091
3.31018,32900
3.31755,36866
3.32493,37335
3.3323,35821
3.33968,30647
3.34707,27308
3.35443,27051
3.36182,26339
3.36918,26022
3.37657,28120
3.38393,39238
3.39132,65926
3.3987,79939
3.40607,67255
3.41345,53039
3.42082,43343
3.4282,42931
3.43558,54502
3.44295,65241
3.45033,59185
3.4577,48701
3.46508,38130
3.47245,35325
3.47983,40351
3.48722,69399
3.49458,147709
3.50197,190858
3.50933,170153
3.51672,143767
3.5241,195919
3.53147,722609
3.53885,1647128
3.54622,1787403
3.5536,1242128
3.56097,606268
3.56835,238554
3.57573,129631
3.5831,182069
3.59048,238376
3.59785,213584
3.60523,159532
3.61262,109162
3.61998,71124
3.62737,47292
3.63473,34282
3.64212,29560
3.64948,45111
3.65687,96321
3.66425,136351
3.67162,130701
3.679,108290
3.68637,83612
3.69375,57494
3.70112,38159
3.7085,26819
3.71588,23813
3.72325,22667
3.73063,22744
3.738,24992
3.74538,32082
3.75277,38745
3.76013,45873
3.76752,68337
3.77488,90185
3.78227,80321
3.78963,62086
3.79702,70820
3.8044,83880
3.81177,83103
3.81915,70205
3.82652,57246
3.8339,42460
3.84128,33802
3.84865,32926
3.85603,37130
3.8634,47487
3.87078,60995
3.87815,71951
3.88553,126449
3.89292,249660
3.90028,268883
3.90767,167791
3.91503,80984
3.92242,53732
3.9298,51141
3.93717,48026
3.94455,43234
3.95192,41434
3.9593,43381
3.96667,53094
3.97405,92281
3.98143,124236
3.9888,103711
3.99618,60099
4.00355,38064
4.01093,43951
4.01832,66181
4.02568,95261
4.03307,106634
4.04043,82349
4.04782,57316
4.05518,45966
4.06257,39700
4.06995,41376
4.07732,47662
4.0847,45058
4.09207,35185
4.09945,28874
4.10683,31508
4.1142,33984
4.12158,32078
4.12895,30388
4.13633,29993
4.1437,31261
4.15108,48416
4.15847,81110
4.16583,82359
4.17322,70895
4.18058,63711
4.18797,51552
4.19535,36685
4.20272,33710
4.2101,41170
4.21747,53984
4.22485,67138
4.23222,92663
4.2396,104201
4.24698,81178
4.25435,57262
4.26173,52141
4.2691,58782
4.27648,53660
4.28385,52909
4.29123,66118
4.29862,76234
4.30598,88752
4.31337,165671
4.32073,236313
4.32812,191721
4.3355,103345
4.34287,58307
4.35025,55558
4.35762,75927
4.365,88604
4.37237,69733
4.37975,51329
4.38713,60014
4.3945,67066
4.40188,68053
4.40925,66236
4.41663,70373
4.42402,79199
4.43138,70262
4.43877,51527
4.44613,40444
4.45352,40718
4.46088,47677
4.46827,51134
4.47565,50753
4.48302,45928
4.4904,46000
4.49777,48876
4.50515,50913
4.51253,64370
4.5199,68967
4.52728,70402
4.53465,91419
4.54203,98502
4.5494,73619
4.55678,51127
4.56417,55141
4.57153,86794
4.57892,103885
4.58628,88066
4.59367,73057
4.60105,69471
4.60842,68918
4.6158,72812
4.62317,82510
4.63055,80967
4.63792,64331
4.6453,178965
4.65268,1007709
4.66005,2425215
4.66743,2440433
4.6748,1272604
4.68218,398813
4.68957,112515
4.69693,66850
4.70432,55383
4.71168,42810
4.71907,37005
4.72643,51783
4.73382,214507
4.7412,1632621
4.74857,5912772
4.75595,9242428
4.76332,7241008
4.7707,2827954
4.77808,619598
4.78545,132383
4.79283,71419
4.8002,60891
4.80758,61095
4.81495,63255
4.82233,73741
4.82972,96305
4.83708,114747
4.84447,107426
4.85183,80630
4.85922,66620
4.8666,75119
4.87397,93088
4.88135,82086
4.88872,57155
4.8961,44014
4.90347,54732
4.91085,81300
4.91823,82382
4.9256,88892
4.93298,129406
4.94035,140667
4.94773,130270
4.9551,129601
4.96248,128315
4.96987,166034
4.97723,154731
4.98462,103075
4.99198,106569
4.99937,114513
5.00675,83107
5.01412,67809
5.0215,91151
5.02887,469398
5.03625,2405764
5.04362,4675832
5.051,3691557
5.05838,1328590
5.06575,275523
5.07313,120990
5.0805,303485
5.08788,619809
5.09527,499975
5.10263,172821
5.11002,64550
5.11738,59378
5.12477,66063
5.13213,71405
5.13952,58407
5.1469,40268
5.15427,41173
5.16165,58272
5.16902,80179
5.1764,100140
5.18378,96964
5.19115,87094
5.19853,115910
5.2059,174137
5.21328,145301
5.22065,77944
5.22803,90851
5.23542,145603
5.24278,142685
5.25017,99082
5.25753,63318
5.26492,44235
5.2723,46728
5.27967,66746
5.28705,88627
5.29442,142345
5.3018,194191
5.30917,162249
5.31655,100789
5.32393,64836
5.3313,63082
5.33868,70258
5.34605,73496
5.35343,88267
5.36082,137262
5.36818,186566
5.37557,225569
5.38293,297432
5.39032,289131
5.39768,207127
5.40507,261672
5.41245,793681
5.41982,1417231
5.4272,1121934
5.43457,526762
5.44195,264708
5.44933,199663
5.4567,187880
5.46408,139111
5.47145,136863
5.47883,213652
5.4862,370645
5.49358,474396
5.50097,322620
5.50833,171380
5.51572,201826
5.52308,179900
5.53047,113966
5.53783,83810
5.54522,82259
5.5526,136537
5.55997,247846
5.56735,286039
5.57472,210407
5.5821,163764
5.58948,177605
5.59685,156985
5.60423,119871
5.6116,118404
5.61898,134387
5.62635,126884
5.63373,116938
5.64112,150613
5.64848,168713
5.65587,163836
5.66323,145850
5.67062,128750
5.678,133439
5.68537,136865
5.69275,162759
5.70012,176761
5.7075,147313
5.71487,108647
5.72225,87224
5.72963,153420
5.737,310393
5.74438,480099
5.75175,1113657
5.75913,3569613
5.76652,6031428
5.77388,4225662
5.78127,1192197
5.78863,234088
5.79602,319924
5.80338,540325
5.81077,523645
5.81815,881831
5.82552,991976
5.8329,521849
5.84027,1297736
5.84765,6541660
5.85503,14406149
5.8624,19042174
5.86978,17282650
5.87715,13284196
5.88453,11787112
5.8919,3772685
5.89928,581868
5.90667,218854
5.91403,291403
5.92142,1552935
5.92878,6216728
5.93617,12560321
5.94355,13398556
5.95092,5320315
5.9583,564403
5.96567,160840
5.97305,230906
5.98042,301972
5.9878,360148
5.99518,362316
6.00255,294269
6.00993,266603
6.0173,269701
6.02468,222470
6.03207,133763
6.03943,91270
6.04682,93473
6.05418,175371
6.06157,1119116
6.06893,5580699
6.07632,11458862
6.0837,10556706
6.09107,3482479
6.09845,693447
6.10582,452289
6.1132,338369
6.12057,254173
6.12795,298625
6.13533,352366
6.1427,335053
6.15008,275186
6.15745,204766
6.16483,228515
6.17222,438313
6.17958,769507
6.18697,944201
6.19433,794117
6.20172,490991
6.20908,322742
6.21647,1206080
6.22385,6521970
6.23122,16090523
6.2386,24458928
6.24597,30719572
6.25335,32316102
6.26073,13108603
6.2681,810775
6.27548,293520
6.28285,226944
6.29023,184899
6.2976,225860
6.30498,373235
6.31237,415276
6.31973,341426
6.32712,256810
6.33448,177797
6.34187,147391
6.34925,201375
6.35662,285416
6.364,271237
6.37137,194784
6.37875,261393
6.38612,748283
6.3935,1170867
6.40088,740911
6.40825,493998
6.41563,707968
6.423,1003601
6.43038,1227964
6.43777,839712
6.44513,410118
6.45252,329838
6.45988,399560
6.46727,421281
6.47463,544659
6.48202,729301
6.4894,541639
6.49677,388699
6.50415,435571
6.51152,778129
6.5189,727859
6.52628,402472
6.53365,411015
6.54103,1350501
6.5484,3266847
6.55578,3117085
6.56315,5114014
6.57053,12559691
6.57792,18495626
6.58528,12983863
6.59267,2542461
6.60003,419513
6.60742,334103
6.6148,308682
6.62217,374484
6.62955,635323
6.63692,907704
6.6443,1217006
6.65167,1150220
6.65905,748164
6.66643,513920
6.6738,371401
6.68118,427821
6.68855,700213
6.69593,918834
6.7033,705940
6.71068,469241
6.71807,764668
6.72543,2916834
6.73282,6928295
6.74018,6378864
6.74757,2237839
6.75495,531227
6.76232,263706
6.7697,243183
6.77707,277764
6.78445,267216
6.79182,247701
6.7992,328304
6.80658,484548
6.81395,492538
6.82133,396287
6.8287,504417
6.83608,910232
6.84347,1228533
6.85083,2504580
6.85822,4750335
6.86558,5320901
6.87297,7509160
6.88033,10644779
6.88772,7045457
6.8951,2922927
6.90247,1828678
6.90985,1778681
6.91722,4036293
6.9246,6230560
6.93198,6949010
6.93935,5329370
6.94673,5707639
6.9541,11220042
6.96148,12559786
6.96885,6271314
6.97623,2520829
6.98362,819790
6.99098,595700
6.99837,1223446
7.00573,1510444
7.01312,912005
7.0205,537289
7.02787,495479
7.03525,1135806
7.04262,2759031
7.05,3701213
7.05737,4424136
7.06475,4103464
7.07213,1673057
7.0795,606472
7.08688,399640
7.09425,318529
7.10163,330252
7.10902,460842
7.11638,597695
7.12377,559756
7.13113,501330
7.13852,517645
7.14588,492686
7.15327,1174026
7.16065,4643238
7.16802,9318654
7.1754,8676042
7.18277,6104443
7.19015,9126445
7.19753,8098099
7.2049,2327331
7.21228,464833
7.21965,512438
7.22703,1493515
7.2344,2603410
7.24178,2188087
7.24917,3775594
7.25653,10667537
7.26392,15524707
7.27128,9601130
7.27867,2032442
7.28603,1586417
7.29342,4135849
7.3008,5742622
7.30817,3232810
7.31555,870896
7.32292,538458
7.3303,1142208
7.33768,1938209
7.34505,2342982
7.35243,3695074
7.3598,3415926
7.36718,1244995
7.37455,526224
7.38193,604160
7.38932,870726
7.39668,1628606
7.40407,2373423
7.41143,2050361
7.41882,1849518
7.4262,1563380
7.43357,885136
7.44095,755705
7.44832,1338074
7.4557,1559852
7.46307,1065953
7.47045,812280
7.47783,863541
7.4852,2179494
7.49258,5018450
7.49995,5186298
7.50733,2382997
7.51472,1182841
7.52208,1366195
7.52947,1706719
7.53683,1774752
7.54422,1619479
7.55158,943424
7.55897,774286
7.56635,1197111
7.57372,1261116
7.5811,1892774
7.58847,5749957
7.59585,11438955
7.60323,11530855
7.6106,4821772
7.61798,1024961
7.62535,652779
7.63273,2878104
7.6401,9893802
7.64748,16637009
7.65487,13503138
7.66223,3314868
7.66962,836399
7.67698,498357
7.68437,350886
7.69175,390299
7.69912,713242
7.7065,1178754
7.71387,1667243
7.72125,1750993
7.72862,1418285
7.736,1043628
7.74338,732504
7.75075,702895
7.75813,616669
7.7655,600782
7.77288,822463
7.78027,1077701
7.78763,1657431
7.79502,3106920
7.80238,4231271
7.80977,2644065
7.81713,1194697
7.82452,1064334
7.8319,1093406
7.83927,1869866
7.84665,3516341
7.85402,8235491
7.8614,11810193
7.86877,8064107
7.87615,5859784
7.88353,5934261
7.8909,2973070
7.89828,2104632
7.90565,2895052
7.91303,2478713
7.92042,2267089
7.92778,2420050
7.93517,2982124
7.94253,2486807
7.94992,2024382
7.95728,4492344
7.96467,6291097
7.97205,7721535
7.97942,12008344
7.9868,13282017
7.99417,11030126
8.00155,6890226
8.00893,5139288
8.0163,6777366
8.02368,5317800
8.03105,2089026
8.03843,1632702
8.0458,3468912
8.05318,4067137
8.06057,2511123
8.06793,3101322
8.07532,4008553
8.08268,3221236
8.09007,4294867
8.09745,4963052
8.10482,4206607
8.1122,3108860
8.11957,2766131
8.12695,2752593
8.13432,3268962
8.1417,3164424
8.14908,1557005
8.15645,784476
8.16383,671906
8.1712,631079
8.17858,819119
8.18597,1653324
8.19333,3900162
8.20072,5930498
8.20808,3511073
8.21547,1128051
8.22283,549257
8.23022,375077
8.2376,378952
8.24497,449455
8.25235,492354
8.25972,477842
8.2671,478547
8.27448,656445
8.28185,1107457
8.28923,1737315
8.2966,3020405
8.30398,4083909
8.31135,2769967
8.31873,1391281
8.32612,1685428
8.33348,2896596
8.34087,5149750
8.34823,10656537
8.35562,14677072
8.363,10518605
8.37037,7009661
8.37775,8914610
8.38512,7669295
8.3925,3637642
8.39987,2110535
8.40725,1675611
8.41463,2049367
8.422,3457503
8.42938,6058652
8.43675,8533463
8.44413,7035784
8.4515,4118628
8.45888,6694238
8.46627,10058642
8.47363,6511639
8.48102,2168357
8.48838,1526360
8.49577,1758982
8.50315,1637088
8.51052,1638952
8.5179,2476575
8.52527,2799826
8.53265,2006040
8.54002,1713194
8.5474,2275160
8.55478,4533470
8.56215,5018290
8.56953,2501581
8.5769,1376192
8.58428,1354519
8.59167,1361982
8.59903,2144986
8.60642,2667222
8.61378,2098188
8.62117,1281368
8.62853,809473
8.63592,641960
8.6433,1190371
8.65067,2460108
8.65805,2884322
8.66542,2230558
8.6728,2042687
8.68018,2008775
8.68755,1929753
8.69493,2287593
8.7023,3697852
8.70968,3414371
8.71705,2536508
8.72443,2027384
8.73182,1331614
8.73918,1136268
8.74657,1226531
8.75393,1155099
8.76132,887782
8.7687,750182
8.77607,799814
8.78345,1255721
8.79082,1492451
8.7982,1881341
8.80557,3510352
8.81295,4795823
8.82033,4415648
8.8277,3515445
8.83508,4142633
8.84245,4586176
8.84983,3188870
8.85722,1769085
8.86458,1435767
8.87197,2403148
8.87933,2947874
8.88672,3210204
8.89408,3475494
8.90147,2458778
8.90885,2710143
8.91622,3432781
8.9236,2649770
8.93097,2466225
8.93835,3033906
8.94573,4022813
8.9531,4114748
8.96048,3033235
8.96785,2451207
8.97523,4744961
8.9826,6775160
8.98998,4261072
8.99737,3047124
9.00473,3524207
9.01212,2461218
9.01948,2311464
9.02687,2774044
9.03423,1849575
9.04162,759061
9.049,553011
9.05637,1017312
9.06375,2385095
9.07112,2983389
9.0785,2084324
9.08588,2116005
9.09325,2341338
9.10063,1802452
9.108,2233723
9.11538,3605243
9.12275,3543262
9.13013,1814453
9.13752,1502092
9.14488,2197190
9.15227,2294253
9.15963,1721471
9.16702,1457388
9.1744,1839398
9.18177,1573964
9.18915,1328269
9.19652,2244400
9.2039,2937364
9.21127,2216638
9.21865,984575
9.22603,627685
9.2334,706955
9.24078,1071325
9.24815,1846274
9.25553,2321524
9.26292,3029518
9.27028,3709003
9.27767,3313727
9.28503,1827502
9.29242,1306021
9.29978,2129037
9.30717,2524094
9.31455,1571197
9.32192,1362221
9.3293,2036840
9.33667,3061444
9.34405,3218338
9.35143,1699345
9.3588,1219631
9.36618,1340591
9.37355,1472577
9.38093,1363273
9.3883,1548533
9.39568,2291438
9.40307,2071101
9.41043,1434876
9.41782,1598255
9.42518,2242533
9.43257,4567730
9.43995,6746585
9.44732,4381216
9.4547,1468128
9.46207,695784
9.46945,762374
9.47682,833133
9.4842,1074977
9.49158,1533282
9.49895,1267953
9.50633,828746
9.5137,776113
9.52108,634016
9.52847,473343
9.53583,467508
9.54322,499967
9.55058,504126
9.55797,519176
9.56533,592635
9.57272,560877
9.5801,435731
9.58747,589671
9.59485,1277351
9.60222,2679854
9.6096,2811695
9.61698,1555634
9.62435,852468
9.63173,748558
9.6391,795937
9.64648,887707
9.65385,905707
9.66123,740309
9.66862,578848
9.67598,552264
9.68337,556432
9.69073,530767
9.69812,502875
9.70548,495735
9.71287,452668
9.72025,568092
9.72762,648995
9.735,580240
9.74237,456505
9.74975,327856
9.75713,269356
9.7645,270092
9.77188,327246
9.77925,382260
9.78663,407934
9.794,558155
9.80138,768320
9.80877,639551
9.81613,368745
9.82352,410342
9.83088,602378
9.83827,492956
9.84565,304316
9.85302,279462
9.8604,332635
9.86777,387611
9.87515,459110
9.88252,474153
9.8899,465859
9.89728,428582
9.90465,362024
9.91203,355949
9.9194,455506
9.92678,414742
9.93417,298570
9.94153,288456
9.94892,269720
9.95628,235898
9.96367,208525
9.97103,211712
9.97842,323716
9.9858,495738
9.99317,454815
10.0006,339306
10.0079,283824
10.0153,230739
10.0227,212458
10.0301,275546
10.0374,470710
10.0448,533213
10.0522,322200
10.0596,180994
10.0669,167208
10.0743,197272
10.0817,210617
10.0891,179810
10.0964,185854
10.1038,208165
10.1112,177827
10.1186,143837
10.126,150444
10.1333,166671
10.1407,185389
10.1481,205927
10.1555,216758
10.1628,209176
10.1702,202020
10.1776,215728
10.185,203732
10.1923,207112
10.1997,246862
10.2071,236635
10.2145,209965
10.2218,211215
10.2292,304378
10.2366,712060
10.244,1053690
10.2514,638698
10.2587,264014
10.2661,194223
10.2735,205360
10.2809,227818
10.2882,201969
10.2956,173230
10.303,178111
10.3104,223595
10.3177,287099
10.3251,280989
10.3325,283389
10.3399,355918
10.3472,335102
10.3546,226111
10.362,182163
10.3694,197803
10.3767,246713
10.3841,273111
10.3915,207138
10.3989,145866
10.4063,142291
10.4136,153063
10.421,174440
10.4284,263483
10.4358,382866
10.4431,376624
10.4505,271740
10.4579,175700
10.4653,151782
10.4726,152664
10.48,155317
10.4874,160003
10.4948,156213
10.5021,151925
10.5095,163903
10.5169,166868
10.5243,153568
10.5317,155414
10.539,161749
10.5464,162575
10.5538,153395
10.5612,196626
10.5685,352464
10.5759,483516
10.5833,373679
10.5907,222887
10.598,212974
10.6054,291800
10.6128,294335
10.6202,200792
10.6275,185356
10.6349,208473
10.6423,198223
10.6497,220980
10.6571,278667
10.6644,284242
10.6718,266547
10.6792,226887
10.6866,174374
10.6939,173955
10.7013,197196
10.7087,206615
10.7161,214515
10.7234,193777
10.7308,169910
10.7382,181582
10.7456,254078
10.7529,285381
10.7603,225356
10.7677,196209
10.7751,300183
10.7825,447718
10.7898,425877
10.7972,283498
10.8046,204375
10.812,193554
10.8193,163691
10.8267,135521
10.8341,133564
10.8415,146774
10.8488,204292
10.8562,318890
10.8636,409381
10.871,355806
10.8783,233910
10.8857,209190
10.8931,241953
10.9005,221755
10.9078,164666
10.9152,139461
10.9226,132756
10.93,132772
10.9374,143049
10.9447,156973
10.9521,162684
10.9595,141255
10.9669,121230
10.9742,117623
10.9816,141149
10.989,155663
10.9964,141678
11.0037,129040
11.0111,117827
11.0185,111287
11.0259,119490
11.0332,136404
11.0406,154499
11.048,155912
11.0554,150902
11.0628,147626
11.0701,146224
11.0775,198281
11.0849,380671
11.0923,646048
11.0996,610453
11.107,328871
11.1144,207685
11.1218,166068
11.1291,147275
11.1365,142078
11.1439,147808
11.1513,169025
11.1586,206427
11.166,222329
11.1734,208352
11.1808,185633
11.1882,166245
11.1955,156682
11.2029,151274
11.2103,165397
11.2177,175193
11.225,178964
11.2324,165629
11.2398,144893
11.2472,142399
11.2545,173195
11.2619,193007
11.2693,174734
11.2767,166195
11.284,189031
11.2914,196909
11.2988,164352
11.3062,134112
11.3135,133712
11.3209,135561
11.3283,140152
11.3357,146328
11.3431,135108
11.3504,124783
11.3578,127514
11.3652,124531
11.3726,130927
11.3799,139484
11.3873,143670
11.3947,143731
11.4021,135161
11.4094,116352
11.4168,117470
11.4242,133877
11.4316,135610
11.4389,145892
11.4463,204208
11.4537,225742
11.4611,192981
11.4685,210791
11.4758,229142
11.4832,197419
11.4906,180980
11.498,179854
11.5053,169737
11.5127,200281
11.5201,227969
11.5275,199249
11.5348,158504
11.5422,152087
11.5496,146415
11.557,137712
11.5643,152817
11.5717,169334
11.5791,156755
11.5865,134765
11.5939,139808
11.6012,163090
11.6086,187153
11.616,185032
11.6234,172597
11.6307,183661
11.6381,196882
11.6455,175628
11.6529,158664
11.6602,143509
11.6676,150739
11.675,180908
11.6824,162022
11.6897,116434
11.6971,100977
11.7045,111692
11.7119,118596
11.7192,113777
11.7266,107477
11.734,101408
11.7414,99257
11.7488,101931
11.7561,104829
11.7635,101519
11.7709,104039
11.7783,124061
11.7856,139648
11.793,135260
11.8004,123936
11.8078,114312
11.8151,117581
11.8225,125340
11.8299,120121
11.8373,120407
11.8446,137077
11.852,144119
11.8594,124967
11.8668,121983
11.8742,133211
11.8815,124786
11.8889,141551
11.8963,266930
11.9037,340575
11.911,219850
11.9184,136444
11.9258,116402
11.9332,129804
11.9405,148729
11.9479,153716
11.9553,157213
11.9627,172710
11.97,192137
11.9774,184843
11.9848,145602
11.9922,124647
11.9996,135944
12.0069,139673
12.0143,125795
12.0217,116976
12.0291,110455
12.0364,105613
12.0438,110435
12.0512,123994
12.0586,120058
12.0659,114164
12.0733,114743
12.0807,112962
12.0881,102173
12.0954,94618
12.1028,101495
12.1102,109393
12.1176,111069
12.1249,112241
12.1323,127943
12.1397,133321
12.1471,115229
12.1545,101022
12.1618,99663
12.1692,104242
12.1766,102577
12.184,98539
12.1913,99591
12.1987,102760
12.2061,95440
12.2135,86803
12.2208,87995
12.2282,92157
12.2356,95349
12.243,105792
12.2503,122445
12.2577,122437
12.2651,124616
12.2725,150745
12.2799,168771
12.2872,158274
12.2946,138997
12.302,130251
12.3094,119803
12.3167,106636
12.3241,93866
12.3315,89677
12.3389,91645
12.3462,100919
12.3536,99151
12.361,89447
12.3684,82900
12.3757,88181
12.3831,102018
12.3905,118047
12.3979,114157
12.4053,98122
12.4126,89266
12.42,86842
12.4274,84152
12.4348,82680
12.4421,86979
12.4495,100432
12.4569,105786
12.4643,90126
12.4716,78997
12.479,79239
12.4864,79675
12.4938,78174
12.5011,79406
12.5085,90665
12.5159,96585
12.5233,87620
12.5307,73951
12.538,73123
12.5454,77877
12.5528,85343
12.5602,84386
12.5675,79765
12.5749,78489
12.5823,79480
12.5897,80578
12.597,85568
12.6044,83851
12.6118,78580
12.6192,80163
12.6265,80009
12.6339,79766
12.6413,82882
12.6487,90154
12.656,122840
12.6634,198253
12.6708,194574
12.6782,112040
12.6856,79313
12.6929,77947
12.7003,100837
12.7077,156699
12.7151,182743
12.7224,145508
12.7298,104179
12.7372,90177
12.7446,90290
12.7519,91251
12.7593,98276
12.7667,112414
12.7741,127998
12.7814,114692
12.7888,97026
12.7962,89758
12.8036,84958
12.811,79970
12.8183,77868
12.8257,79650
12.8331,82439
12.8405,81333
12.8478,78984
12.8552,78475
12.8626,79151
12.87,83871
12.8773,93063
12.8847,88575
12.8921,81092
12.8995,78301
12.9068,78977
12.9142,81641
12.9216,82297
12.929,80204
12.9364,74702
12.9437,72009
12.9511,71421
12.9585,68362
12.9659,66100
12.9732,72348
12.9806,82094
12.988,92956
12.9954,98498
13.0027,95116
13.0101,87623
13.0175,84061
13.0249,74457
13.0322,69458
13.0396,76352
13.047,81165
13.0544,82811
13.0617,79270
13.0691,76743
13.0765,81307
13.0839,99352
13.0913,111143
13.0986,92877
13.106,74599
13.1134,69760
13.1208,72220
13.1281,81673
13.1355,85541
13.1429,85237
13.1503,80165
13.1576,76319
13.165,76053
13.1724,75222
13.1798,71456
13.1871,74313
13.1945,80006
13.2019,78471
13.2093,69048
13.2167,69144
13.224,70493
13.2314,71931
13.2388,70284
13.2462,66113
13.2535,68036
13.2609,71924
13.2683,75139
13.2757,74593
13.283,70600
13.2904,65121
13.2978,65752
13.3052,68841
13.3125,69336
13.3199,67975
13.3273,63747
13.3347,61959
13.3421,66609
13.3494,72425
13.3568,77641
13.3642,78091
13.3716,68988
13.3789,70241
13.3863,95704
13.3937,123384
13.4011,101204
13.4084,72615
13.4158,66528
13.4232,69177
13.4306,70767
13.4379,67780
13.4453,67013
13.4527,77428
13.4601,96636
13.4674,107008
13.4748,95643
13.4822,84195
13.4896,96141
13.497,137543
13.5043,144528
13.5117,108923
13.5191,77889
13.5265,71550
13.5338,71893
13.5412,66025
13.5486,62223
13.556,64661
13.5633,70205
13.5707,78109
13.5781,79366
13.5855,71546
13.5928,66762
13.6002,65899
13.6076,62804
13.615,62541
13.6224,66576
13.6297,64351
13.6371,61540
13.6445,62619
13.6519,61765
13.6592,60959
13.6666,57714
13.674,58644
13.6814,60330
13.6887,66889
13.6961,68751
13.7035,69910
13.7109,66972
13.7182,66871
13.7256,68155
13.733,67872
13.7404,65714
13.7478,66645
13.7551,68376
13.7625,65347
13.7699,61658
13.7773,59372
13.7846,58910
13.792,59067
13.7994,59119
13.8068,57959
13.8141,56969
13.8215,56491
13.8289,57531
13.8363,60144
13.8436,60842
13.851,60557
13.8584,59633
13.8658,57951
13.8731,56910
13.8805,60960
13.8879,63042
13.8953,64480
13.9027,62405
13.91,62866
13.9174,60098
13.9248,60518
13.9322,60205
13.9395,57298
13.9469,59383
13.9543,62346
13.9617,61072
13.969,63336
13.9764,64155
13.9838,61304
13.9912,58365
13.9985,59148
14.0059,60881
14.0133,65421
14.0207,64619
14.0281,63021
14.0354,61973
14.0428,64044
14.0502,62842
14.0576,61448
14.0649,59590
14.0723,64084
14.0797,79263
14.0871,90254
14.0944,78666
14.1018,76384
14.1092,70266
14.1166,63211
14.1239,61156
14.1313,59190
14.1387,59838
14.1461,60583
14.1535,60501
14.1608,60916
14.1682,58047
14.1756,58215
14.183,56321
14.1903,58077
14.1977,59344
14.2051,59334
14.2125,58742
14.2198,59804
14.2272,58645
14.2346,59623
14.242,56377
14.2493,57027
14.2567,57138
14.2641,58718
14.2715,61590
14.2789,69919
14.2862,70471
14.2936,65328
14.301,61688
14.3084,59699
14.3157,60083
14.3231,61630
14.3305,65426
14.3379,67823
14.3452,69516
14.3526,70904
14.36,68743
14.3674,66650
14.3747,64591
14.3821,65124
14.3895,67643
14.3969,67860
14.4042,66228
14.4116,65547
14.419,65397
14.4264,60956
14.4338,61304
14.4411,62096
14.4485,65787
14.4559,78893
14.4633,80045
14.4706,78703
14.478,73956
14.4854,72132
14.4928,70764
14.5001,68409
14.5075,67025
14.5149,66137
14.5223,63978
14.5296,65404
14.537,72391
14.5444,73613
14.5518,70173
14.5592,68042
14.5665,69715
14.5739,70751
14.5813,68496
14.5887,69755
14.596,71483
14.6034,72368
14.6108,74074
14.6182,73219
14.6255,73026
14.6329,73927
14.6403,74344
14.6477,72493
14.655,70179
14.6624,70905
14.6698,70343
14.6772,72619
14.6846,74366
14.6919,75699
14.6993,84106
14.7067,95628
14.7141,89875
14.7214,82994
14.7288,83037
14.7362,81774
14.7436,86394
14.7509,89869
14.7583,89922
14.7657,85329
14.7731,83658
14.7804,84157
14.7878,83317
14.7952,79999
14.8026,78762
14.8099,80942
14.8173,83290
14.8247,82645
14.8321,80390
14.8395,78041
14.8468,77718
14.8542,77487
14.8616,77863
14.869,78990
14.8763,79057
14.8837,78497
14.8911,79164
14.8985,80062
14.9058,81682
14.9132,86336
14.9206,92817
14.928,95838
14.9353,95239
14.9427,92871
14.9501,91795
14.9575,91324
14.9649,91747
14.9722,92859
14.9796,88274
14.987,86956
14.9944,90549
15.0017,91069
15.0091,87887
15.0165,89299
15.0239,89965
15.0312,91658
15.0386,93341
15.046,92838
15.0534,92583
15.0607,95291
15.0681,94318
15.0755,92478
15.0829,91690
15.0903,92281
15.0976,93804
15.105,98458
15.1124,102215
15.1198,104999
15.1271,108427
15.1345,109714
15.1419,110523
15.1493,109338
15.1566,111914
15.164,112721
15.1714,115898
15.1788,117715
15.1861,119318
15.1935,120682
15.2009,120253
15.2083,121769
15.2156,124126
15.223,124302
15.2304,128762
15.2378,131624
15.2452,133927
15.2525,146086
15.2599,150731
15.2673,143705
15.2747,138879
15.282,132347
15.2894,135435
15.2968,149754
15.3042,168056
15.3115,160358
15.3189,145533
15.3263,141753
15.3337,142733
15.341,143750
15.3484,138837
15.3558,142225
15.3632,140661
15.3706,142935
15.3779,143056
15.3853,142222
15.3927,139375
15.4001,137614
15.4074,137000
15.4148,139279
15.4222,144608
15.4296,150443
15.4369,154632
15.4443,158047
15.4517,159933
15.4591,154551
15.4664,157780
15.4738,157488
15.4812,157715
15.4886,155672
15.496,153069
15.5033,150082
15.5107,151886
15.5181,154133
15.5255,153289
15.5328,151152
15.5402,155141
15.5476,162509
15.555,158329
15.5623,157663
15.5697,157054
15.5771,160469
15.5845,160653
15.5918,182494
15.5992,190241
15.6066,180949
15.614,174815
15.6213,170421
15.6287,164487
15.6361,163692
15.6435,163913
15.6509,161907
15.6582,163140
15.6656,167438
15.673,170229
15.6804,169650
15.6877,167529
15.6951,162625
15.7025,163528
15.7099,162335
15.7172,167073
15.7246,170861
15.732,167623
15.7394,177805
15.7467,190470
15.7541,183649
15.7615,181578
15.7689,177348
15.7763,175728
15.7836,183693
15.791,189508
15.7984,187096
15.8058,185043
15.8131,181973
15.8205,178084
15.8279,181995
15.8353,184696
15.8426,186789
15.85,185422
15.8574,184736
15.8648,188947
15.8721,190746
15.8795,191778
15.8869,195971
15.8943,199886
15.9017,207516
15.909,222784
15.9164,233694
15.9238,231581
15.9312,225574
15.9385,225672
15.9459,224418
15.9533,227314
15.9607,228567
15.968,222819
15.9754,225573
15.9828,218855
15.9902,223559
15.9975,224918
16.0049,229310
16.0123,236258
16.0197,232697
16.027,231879
16.0344,226545
16.0418,226257
16.0492,225919
16.0566,222987
16.0639,227103
16.0713,225660
16.0787,223807
16.0861,222274
16.0934,221863
16.1008,222413
16.1082,225046
16.1156,224816
16.1229,221778
16.1303,223442
16.1377,222189
16.1451,223991
16.1524,224612
16.1598,228871
16.1672,228471
16.1746,228707
16.182,228291
16.1893,241705
16.1967,244448
16.2041,235146
16.2114,233266
16.2188,229818
16.2262,230259
16.2336,240410
16.241,245020
16.2483,236211
16.2557,232494
16.2631,231998
16.2705,232938
16.2778,235893
16.2852,234258
16.2926,235536
16.3,230564
16.3074,228785
16.3147,226596
16.3221,223365
16.3295,224653
16.3368,224925
16.3442,226255
16.3516,229986
16.359,236935
16.3664,234423
16.3737,235095
16.3811,231904
16.3885,233094
16.3959,232468
16.4032,229806
16.4106,230054
16.418,231828
16.4254,230567
16.4327,227322
16.4401,223395
16.4475,224390
16.4549,227350
16.4623,228531
16.4696,226958
16.477,225523
16.4844,229115
16.4918,228537
16.4991,229548
16.5065,229112
16.5139,227594
16.5213,232204
16.5286,229966
16.536,229037
16.5434,227632
16.5508,227305
16.5581,230227
16.5655,228821
16.5729,229826
16.5803,228993
16.5877,225768
16.595,226317
16.6024,224426
16.6098,223802
16.6171,223239
16.6245,226519
16.6319,228290
16.6393,230504
16.6467,233656
16.654,235489
16.6614,238807
16.6688,251310
16.6762,253526
16.6835,242283
16.6909,236795
16.6983,237561
16.7057,231268
16.713,229544
16.7204,226908
16.7278,227777
16.7352,225501
16.7426,225613
16.7499,225380
16.7573,228439
16.7647,225405
16.7721,225214
16.7794,229253
16.7868,224321
16.7942,224352
16.8016,225749
16.8089,227194
16.8163,229542
16.8237,231255
16.8311,233079
16.8385,228418
16.8458,230963
16.8532,231769
16.8606,232083
16.868,230277
16.8753,232735
16.8827,230836
16.8901,233961
16.8974,230023
16.9048,231286
16.9122,229081
16.9196,227958
16.927,232192
16.9343,230381
16.9417,230570
16.9491,230775
16.9565,230022
16.9638,226681
16.9712,226901
16.9786,225633
16.986,225436
16.9934,223050
17.0007,221943
17.0081,220981
17.0155,222161
17.0228,221770
17.0302,220389
17.0376,219634
17.045,220803
17.0524,218236
17.0597,220440
17.0671,221566
17.0745,224466
17.0819,220258
17.0892,222954
17.0966,224837
17.104,223849
17.1114,225401
17.1187,225776
17.1261,226109
17.1335,226053
17.1409,233056
17.1483,235998
17.1556,233422
17.163,232458
17.1704,231604
17.1778,231150
17.1851,230234
17.1925,234003
17.1999,232202
17.2073,228746
17.2146,227939
17.222,223929
17.2294,224685
17.2368,222309
17.2442,220458
17.2515,217464
17.2589,217201
17.2663,217649
17.2737,218151
17.281,214622
17.2884,214641
17.2958,214279
17.3031,217086
17.3105,213293
17.3179,215424
17.3253,214969
17.3327,217277
17.34,214124
17.3474,215904
17.3548,214481
17.3622,214266
17.3695,210462
17.3769,210742
17.3843,213195
17.3917,212917
17.399,211409
17.4064,214042
17.4138,211372
17.4212,213878
17.4286,213406
17.4359,214387
17.4433,215561
17.4507,217698
17.4581,216172
17.4654,219067
17.4728,217700
17.4802,220072
17.4876,221142
