D:\Data GC-MS\2021\9 SEPTEMBER\09-09-21\46291-21-3-YKK.D 09 Sep 21  03:50 pm
Start of data points
1.29383,4037799
1.30058,3892114
1.30733,3806641
1.31407,3749446
1.32082,3751023
1.32755,3752232
1.3343,3767278
1.34103,3728998
1.34778,3644687
1.35452,3536737
1.36127,3363212
1.36802,3179187
1.37475,2961171
1.3815,2742638
1.38823,2520759
1.39498,2330520
1.40172,2125601
1.40847,1935583
1.41522,1757548
1.42195,1602356
1.4287,1461715
1.43543,1335467
1.44218,1220641
1.44892,1129038
1.45567,1039434
1.46242,954956
1.46915,876256
1.4759,809564
1.48263,758009
1.48938,713115
1.51025,2079842
1.51762,1933585
1.525,1803583
1.53237,1674500
1.53975,1543886
1.54712,1449622
1.5545,1347544
1.56188,1257883
1.56925,1159777
1.57663,1078145
1.584,996428
1.59138,922831
1.59877,851613
1.60613,783736
1.61352,721451
1.62088,670347
1.62827,619487
1.63563,571723
1.64302,530112
1.6504,486389
1.65777,454995
1.66515,437928
1.67252,420395
1.6799,405012
1.68727,381465
1.69465,354609
1.70203,328987
1.7094,305576
1.71678,281710
1.72415,261701
1.73153,246655
1.73892,231210
1.74628,216176
1.75367,201024
1.76103,184883
1.76842,169890
1.77578,156459
1.78317,144191
1.79055,132081
1.79792,121148
1.8053,112007
1.81267,106413
1.82005,100764
1.82743,94737
1.8348,87710
1.84218,79130
1.84955,76082
1.85693,72340
1.8643,67510
1.87168,61674
1.87907,59524
1.88643,53695
1.89382,49998
1.90118,47784
1.90857,44611
1.91595,40798
1.92332,38385
1.9307,35704
1.93807,34074
1.94545,33061
1.95282,31747
1.9602,29968
1.96758,28309
1.97495,25422
1.98233,24282
1.9897,23769
1.99708,23942
2.00447,24926
2.01183,25796
2.01922,24139
2.02658,23469
2.03397,22828
2.04133,21868
2.04872,20341
2.0561,18849
2.06347,17668
2.07085,16663
2.07822,15714
2.0856,14962
2.09298,14073
2.10035,13338
2.10773,13374
2.1151,12808
2.12248,11708
2.12985,11582
2.13723,11011
2.14462,10496
2.15198,10633
2.15937,11037
2.16673,11542
2.17412,12233
2.1815,11483
2.18887,11226
2.19625,11923
2.20362,11442
2.211,11265
2.21837,10497
2.22575,10578
2.23313,12918
2.2405,22493
2.24788,29182
2.25525,30309
2.26263,32665
2.27,33639
2.27738,33961
2.28477,30228
2.29213,30150
2.29952,28309
2.30688,26562
2.31427,25949
2.32165,23199
2.32902,21363
2.3364,21076
2.34377,22765
2.35115,21637
2.35852,20984
2.3659,19151
2.37328,18943
2.38065,17874
2.38803,17407
2.3954,16698
2.40278,15447
2.41017,14754
2.41753,13392
2.42492,12627
2.43228,11911
2.43967,11975
2.44703,11819
2.45442,16726
2.4618,20741
2.46917,23459
2.47655,21401
2.48392,20508
2.4913,20486
2.49868,19433
2.50605,18903
2.51343,17388
2.5208,15633
2.52818,14872
2.53555,13713
2.54293,12634
2.55032,12068
2.55768,12637
2.56507,14663
2.57243,13541
2.57982,13860
2.5872,22750
2.59457,27165
2.60195,22076
2.60932,18901
2.6167,16918
2.62407,15035
2.63145,13452
2.63883,12787
2.6462,11951
2.65358,11493
2.66095,10772
2.66833,10364
2.67572,10068
2.68308,9394
2.69047,9183
2.69783,9116
2.70522,9165
2.71258,9488
2.71997,8731
2.72735,8328
2.73472,7901
2.7421,8389
2.74947,8033
2.75685,7470
2.76423,7685
2.7716,7751
2.77898,7374
2.78635,7553
2.79373,7587
2.8011,7899
2.80848,8546
2.81587,8694
2.82323,9175
2.83062,9350
2.83798,9752
2.84537,9872
2.85273,9587
2.86012,9339
2.8675,9735
2.87487,9425
2.88225,9295
2.88962,10186
2.897,10389
2.90438,10013
2.91175,10030
2.91913,9787
2.9265,9049
2.93388,9440
2.94125,8706
2.94863,8619
2.95602,8495
2.96338,8393
2.97077,7768
2.97813,8096
2.98552,8321
2.9929,7405
3.00027,7629
3.00765,7527
3.01502,7821
3.0224,7413
3.02977,7014
3.03715,7332
3.04453,7079
3.0519,6750
3.05928,6730
3.06665,6691
3.07403,6845
3.08142,8001
3.08878,9086
3.09617,10174
3.10353,10188
3.11092,10111
3.11828,9970
3.12567,9827
3.13305,9209
3.14042,8969
3.1478,9007
3.15517,9334
3.16255,9568
3.16993,10228
3.1773,10119
3.18468,9965
3.19205,10380
3.19943,9972
3.2068,9819
3.21418,9273
3.22157,9477
3.22893,8560
3.23632,8489
3.24368,8004
3.25107,8367
3.25845,8954
3.26582,10867
3.2732,31161
3.28057,100866
3.28795,169701
3.29532,186653
3.3027,176879
3.31008,158257
3.31745,135490
3.32483,120569
3.3322,98956
3.33958,83153
3.34697,67447
3.35433,53689
3.36172,45416
3.36908,34735
3.37647,29115
3.38383,24337
3.39122,19801
3.3986,16578
3.40597,15403
3.41335,13337
3.42072,10973
3.4281,10581
3.43547,10360
3.44285,9559
3.45023,9385
3.4576,8933
3.46498,8506
3.47235,8454
3.47973,8289
3.48712,8014
3.49448,7853
3.50187,8123
3.50923,7533
3.51662,7857
3.52398,7389
3.53137,7293
3.53875,7358
3.54612,7319
3.5535,7433
3.56087,7701
3.56825,7572
3.57563,7610
3.583,7171
3.59038,7596
3.59775,7742
3.60513,7356
3.6125,7285
3.61988,7522
3.62727,7568
3.63463,7294
3.64202,7397
3.64938,7952
3.65677,8649
3.66415,9577
3.67152,9726
3.6789,9564
3.68627,9030
3.69365,8268
3.70102,8813
3.7084,8302
3.71578,8069
3.72315,8127
3.73053,7860
3.7379,7331
3.74528,7412
3.75267,7358
3.76003,7469
3.76742,7647
3.77478,7687
3.78217,7472
3.78953,7419
3.79692,7397
3.8043,7391
3.81167,7230
3.81905,7600
3.82642,8894
3.8338,9298
3.84118,9109
3.84855,8837
3.85593,8639
3.8633,7805
3.87068,8057
3.87805,7282
3.88543,7564
3.89282,7284
3.90018,6984
3.90757,7095
3.91493,7370
3.92232,7573
3.9297,7763
3.93707,7460
3.94445,7763
3.95182,7138
3.9592,6926
3.96657,7421
3.97395,7463
3.98133,7527
3.9887,7587
3.99608,7527
4.00345,8188
4.01083,7835
4.0182,7613
4.02558,7462
4.03297,8084
4.04033,7641
4.04772,7723
4.05508,7836
4.06247,7761
4.06985,8162
4.07722,7747
4.0846,8414
4.09197,8240
4.09935,8593
4.10672,8394
4.1141,8143
4.12148,7909
4.12885,8236
4.13623,8360
4.1436,7982
4.15098,8192
4.15837,8481
4.16573,8185
4.17312,7915
4.18048,8495
4.18787,7588
4.19523,7709
4.20262,7587
4.21,7553
4.21737,7826
4.22475,7664
4.23212,7623
4.2395,7545
4.24688,7797
4.25425,7940
4.26163,7546
4.269,7619
4.27638,7307
4.28375,7459
4.29113,7563
4.29852,7115
4.30588,7154
4.31327,7366
4.32063,7418
4.32802,6955
4.3354,7095
4.34277,7504
4.35015,7194
4.35752,7235
4.3649,7396
4.37227,7193
4.37965,7415
4.38703,6977
4.3944,7418
4.40178,11197
4.40915,20278
4.41653,28079
4.42392,29617
4.43128,24070
4.43867,19854
4.44603,15089
4.45342,12432
4.46078,10166
4.46817,8922
4.47555,7821
4.48292,7816
4.4903,7724
4.49767,6990
4.50505,10306
4.51243,28029
4.5198,58001
4.52718,75419
4.53455,80959
4.54193,72741
4.5493,58201
4.55668,42968
4.56407,29027
4.57143,20971
4.57882,15166
4.58618,11897
4.59357,9683
4.60095,9125
4.60832,7674
4.6157,7438
4.62307,7656
4.63045,7156
4.63782,6584
4.6452,6527
4.65258,6464
4.65995,6708
4.66733,6508
4.6747,6668
4.68208,6325
4.68945,6385
4.69683,6206
4.70422,6611
4.71158,6408
4.71897,6557
4.72633,6242
4.73372,6705
4.7411,6128
4.74847,6488
4.75585,6553
4.76322,6416
4.7706,6256
4.77797,6850
4.78535,7355
4.79273,13253
4.8001,25253
4.80748,32921
4.81485,28486
4.82223,21236
4.82962,15453
4.83698,11858
4.84437,9792
4.85173,7976
4.85912,7258
4.86648,7381
4.87387,7484
4.88125,7205
4.88862,6933
4.896,7013
4.90337,6917
4.91075,6690
4.91813,6508
4.9255,6462
4.93288,6541
4.94025,6184
4.94763,6364
4.955,6163
4.96238,6330
4.96977,6428
4.97713,5902
4.98452,5927
4.99188,6400
4.99927,5693
5.00665,6023
5.01402,6242
5.0214,6146
5.02877,6345
5.03615,6069
5.04352,6153
5.0509,5967
5.05828,6252
5.06565,5937
5.07303,6001
5.0804,5916
5.08778,5612
5.09517,6366
5.10253,5950
5.10992,5874
5.11728,5719
5.12467,6168
5.13203,5890
5.13942,5911
5.1468,6271
5.15417,5972
5.16155,6592
5.16892,6278
5.1763,6686
5.18368,6458
5.19105,6523
5.19843,6245
5.2058,6279
5.21318,6277
5.22055,6122
5.22793,6042
5.23532,5836
5.24268,5883
5.25007,6160
5.25743,6028
5.26482,6238
5.27218,5891
5.27957,5941
5.28695,6068
5.29432,6039
5.3017,5968
5.30907,6212
5.31645,6221
5.32383,6060
5.3312,6251
5.33858,6351
5.34595,6219
5.35333,5829
5.3607,6181
5.36808,6107
5.37547,6311
5.38283,6782
5.39022,7011
5.39758,7125
5.40497,6836
5.41235,6482
5.41972,6351
5.4271,6202
5.43447,6084
5.44185,6053
5.44922,6394
5.4566,6141
5.46398,6263
5.47135,6326
5.47873,6523
5.4861,6390
5.49348,6513
5.50087,6181
5.50823,6516
5.51562,6347
5.52298,6523
5.53037,6868
5.53773,8514
5.54512,9105
5.5525,7772
5.55987,7422
5.56725,6867
5.57462,6700
5.582,6940
5.58938,6674
5.59675,6573
5.60413,6585
5.6115,8469
5.61888,13640
5.62625,17104
5.63363,14776
5.64102,11192
5.64838,8964
5.65577,9715
5.66313,11658
5.67052,11133
5.6779,9748
5.68527,8318
5.69265,7796
5.70002,7319
5.7074,8087
5.71477,9364
5.72215,10473
5.72953,10884
5.7369,9153
5.74428,7694
5.75165,7339
5.75903,7069
5.76642,6811
5.77378,6832
5.78117,7219
5.78853,6898
5.79592,7514
5.80328,9238
5.81067,10224
5.81805,8774
5.82542,9353
5.8328,10612
5.84017,9758
5.84755,9230
5.85492,8526
5.8623,7632
5.86968,8048
5.87705,7787
5.88443,7203
5.8918,7826
5.89918,7157
5.90657,7125
5.91393,6995
5.92132,7165
5.92868,7033
5.93607,6215
5.94343,6596
5.95082,6651
5.9582,6342
5.96557,6411
5.97295,6322
5.98032,6260
5.9877,6268
5.99508,6049
6.00245,6841
6.00983,12117
6.0172,20047
6.02458,20405
6.03195,13729
6.03933,8809
6.04672,6710
6.05408,6826
6.06147,6676
6.06883,6093
6.07622,6162
6.0836,6411
6.09097,7340
6.09835,6576
6.10572,6234
6.1131,5898
6.12047,5823
6.12785,5917
6.13523,5843
6.1426,6049
6.14998,5974
6.15735,5443
6.16473,5734
6.17212,5590
6.17948,5640
6.18687,5873
6.19423,6082
6.20162,5545
6.20898,5746
6.21637,5865
6.22375,6292
6.23112,5862
6.2385,5890
6.24587,5399
6.25325,5367
6.26063,5768
6.268,5281
6.27538,5535
6.28275,5454
6.29013,5274
6.2975,5500
6.30488,5285
6.31227,5870
6.31963,5668
6.32702,6238
6.33438,7302
6.34177,7750
6.34915,7072
6.35652,6004
6.3639,6032
6.37127,6001
6.37865,5748
6.38602,5726
6.3934,5282
6.40078,5374
6.40815,5586
6.41553,5250
6.4229,5253
6.43028,5404
6.43765,5270
6.44503,5454
6.45242,5443
6.45978,5437
6.46717,5274
6.47453,5153
6.48192,5534
6.4893,5673
6.49667,5893
6.50405,6688
6.51142,6666
6.5188,5398
6.52617,5620
6.53355,5249
6.54093,5531
6.5483,5328
6.55568,4990
6.56305,5219
6.57043,5057
6.57782,5158
6.58518,5485
6.59257,5269
6.59993,5249
6.60732,5545
6.61468,5583
6.62207,5793
6.62945,5779
6.63682,5776
6.6442,5518
6.65157,5935
6.65895,6008
6.66633,6142
6.6737,5628
6.68108,5214
6.68845,5171
6.69583,5555
6.7032,5582
6.71058,6452
6.71797,7603
6.72533,8174
6.73272,7702
6.74008,6574
6.74747,6255
6.75485,5801
6.76222,5717
6.7696,5562
6.77697,5534
6.78435,5852
6.79172,5333
6.7991,5707
6.80648,5502
6.81385,5511
6.82123,5552
6.8286,5718
6.83598,5688
6.84337,5310
6.85073,5482
6.85812,5714
6.86548,5789
6.87287,5234
6.88023,4911
6.88762,5278
6.895,5341
6.90237,5602
6.90975,5446
6.91712,5275
6.9245,5239
6.93188,6243
6.93925,6147
6.94663,5900
6.954,5812
6.96138,6023
6.96875,6296
6.97613,6188
6.98352,5404
6.99088,5206
6.99827,4940
7.00563,5169
7.01302,5574
7.02038,5525
7.02777,6558
7.03515,7565
7.04252,7450
7.0499,6734
7.05727,5744
7.06465,5865
7.07203,5688
7.0794,5619
7.08678,5425
7.09415,5590
7.10153,5271
7.1089,5446
7.11628,5364
7.12367,5373
7.13103,4859
7.13842,5311
7.14578,5454
7.15317,5492
7.16055,5710
7.16792,5812
7.1753,5426
7.18267,5147
7.19005,4957
7.19742,5925
7.2048,8411
7.21218,9691
7.21955,9110
7.22693,7067
7.2343,6541
7.24168,5909
7.24907,6399
7.25643,5834
7.26382,5884
7.27118,5727
7.27857,5242
7.28593,5447
7.29332,5228
7.3007,5777
7.30807,5794
7.31545,5374
7.32282,5445
7.3302,5442
7.33758,5211
7.34495,5101
7.35233,5047
7.3597,5311
7.36708,5351
7.37445,5921
7.38183,6729
7.38922,7063
7.39658,6160
7.40397,5876
7.41133,6342
7.41872,7621
7.4261,8730
7.43347,7278
7.44085,6145
7.44822,5819
7.4556,5652
7.46297,6111
7.47035,6992
7.47773,8201
7.4851,8131
7.49248,6670
7.49985,5657
7.50723,5768
7.51462,5621
7.52198,5352
7.52937,5853
7.53673,5242
7.54412,5268
7.55148,5461
7.55887,5234
7.56625,5526
7.57362,5634
7.581,5147
7.58837,5488
7.59575,5331
7.60312,5506
7.6105,6092
7.61788,5381
7.62525,5526
7.63263,5450
7.64,5321
7.64738,6422
7.65477,6753
7.66213,6209
7.66952,5617
7.67688,5164
7.68427,5325
7.69163,5368
7.69902,5205
7.7064,5285
7.71377,5223
7.72115,5050
7.72852,4878
7.7359,5403
7.74328,6812
7.75065,7540
7.75803,7518
7.7654,7400
7.77278,6340
7.78015,5685
7.78753,5444
7.79492,5281
7.80228,5247
7.80967,5564
7.81703,5596
7.82442,5582
7.8318,6032
7.83917,6031
7.84655,5495
7.85392,4940
7.8613,5265
7.86867,4982
7.87605,5347
7.88343,5356
7.8908,5542
7.89818,5803
7.90555,5808
7.91293,5408
7.92032,5434
7.92768,5175
7.93507,5178
7.94243,5289
7.94982,5082
7.95718,5165
7.96457,5300
7.97195,5463
7.97932,5305
7.9867,5980
7.99407,5243
8.00145,5073
8.00883,4827
8.0162,5197
8.02358,4844
8.03095,5290
8.03833,4868
8.0457,4912
8.05308,4663
8.06047,4892
8.06783,4837
8.07522,4899
8.08258,4913
8.08997,5021
8.09735,4877
8.10472,5202
8.1121,5418
8.11947,5058
8.12685,5178
8.13422,5282
8.1416,5626
8.14898,6049
8.15635,6143
8.16373,7069
8.1711,6933
8.17848,6356
8.18585,6226
8.19323,6451
8.20062,6742
8.20798,6372
8.21537,6150
8.22273,6053
8.23012,6391
8.2375,5618
8.24487,6284
8.25225,8129
8.25962,10046
8.267,8857
8.27437,7061
8.28175,6213
8.28913,5841
8.2965,5795
8.30388,5545
8.31125,6159
8.31863,6305
8.32602,5851
8.33338,5529
8.34077,5380
8.34813,5146
8.35552,4984
8.36288,5245
8.37027,5294
8.37765,5488
8.38502,5082
8.3924,5041
8.39977,5489
8.40715,5093
8.41453,5828
8.4219,5447
8.42928,5134
8.43665,5205
8.44403,4972
8.4514,5186
8.45878,5545
8.46617,5760
8.47353,5430
8.48092,4898
8.48828,4966
8.49567,5385
8.50305,4836
8.51042,5341
8.5178,5039
8.52517,4961
8.53255,5293
8.53992,5223
8.5473,5047
8.55468,5141
8.56205,5198
8.56943,4988
8.5768,5078
8.58418,5350
8.59157,5606
8.59893,5879
8.60632,5104
8.61368,5069
8.62107,4908
8.62843,5117
8.63582,4952
8.6432,5165
8.65057,5013
8.65795,5293
8.66532,5280
8.6727,5245
8.68008,5164
8.68745,5333
8.69483,5345
8.7022,5249
8.70958,5387
8.71695,5148
8.72433,4977
8.73172,5002
8.73908,5249
8.74647,6769
8.75383,7920
8.76122,7989
8.76858,7793
8.77597,7422
8.78335,7174
8.79072,6332
8.7981,6556
8.80547,6280
8.81285,6794
8.82023,6649
8.8276,6306
8.83498,6217
8.84235,6142
8.84973,5889
8.8571,5780
8.86448,5787
8.87187,5931
8.87923,6253
8.88662,6300
8.89398,6547
8.90137,6625
8.90875,6135
8.91612,5579
8.9235,6140
8.93087,6062
8.93825,6492
8.94562,5895
8.953,5754
8.96038,5892
8.96775,5548
8.97513,5665
8.9825,5665
8.98988,5771
8.99727,5570
9.00463,5363
9.01202,5050
9.01938,5521
9.02677,5435
9.03413,5591
9.04152,5818
9.0489,6213
9.05627,5656
9.06365,5574
9.07102,5518
9.0784,5738
9.08578,5864
9.09315,5867
9.10053,5881
9.1079,6114
9.11528,6147
9.12265,7534
9.13003,9009
9.13742,9779
9.14478,8677
9.15217,7569
9.15953,7011
9.16692,7516
9.1743,6652
9.18167,6271
9.18905,5789
9.19642,5175
9.2038,5356
9.21117,5256
9.21855,5351
9.22593,5236
9.2333,5740
9.24068,6150
9.24805,6179
9.25543,6975
9.26282,6767
9.27018,6151
9.27757,5627
9.28493,5495
9.29232,5501
9.29968,5586
9.30707,5425
9.31445,5522
9.32182,6037
9.3292,5482
9.33657,5698
9.34395,5475
9.35132,5026
9.3587,5515
9.36608,5425
9.37345,5733
9.38083,5262
9.3882,5670
9.39558,5257
9.40297,5465
9.41033,5866
9.41772,6078
9.42508,5872
9.43247,5269
9.43983,5159
9.44722,5382
9.4546,5593
9.46197,5459
9.46935,5606
9.47672,5663
9.4841,5215
9.49148,5453
9.49885,5776
9.50623,5802
9.5136,5618
9.52098,5536
9.52835,5724
9.53573,5241
9.54312,5613
9.55048,5185
9.55787,5313
9.56523,5503
9.57262,5597
9.58,5228
9.58737,5661
9.59475,5223
9.60212,5365
9.6095,5542
9.61687,5414
9.62425,5461
9.63163,5463
9.639,5958
9.64638,5926
9.65375,5633
9.66113,5581
9.66852,5592
9.67588,5935
9.68327,5507
9.69063,5430
9.69802,6092
9.70538,6032
9.71277,5566
9.72015,5734
9.72752,5555
9.7349,5411
9.74227,5583
9.74965,6146
9.75703,6000
9.7644,5658
9.77178,5557
9.77915,5588
9.78653,5637
9.7939,5883
9.80128,5523
9.80867,5806
9.81603,5921
9.82342,5817
9.83078,5743
9.83817,5840
9.84555,5759
9.85292,6328
9.8603,6955
9.86767,6167
9.87505,5817
9.88242,6045
9.8898,5850
9.89718,5626
9.90455,5291
9.91193,5505
9.9193,5357
9.92668,5408
9.93407,5476
9.94143,5749
9.94882,5478
9.95618,5479
9.96357,5441
9.97093,5586
9.97832,5500
9.9857,5531
9.99307,5723
10.0005,5561
10.0078,5752
10.0152,5572
10.0226,5583
10.03,5515
10.0373,5333
10.0447,5788
10.0521,5625
10.0595,5779
10.0668,7270
10.0742,11338
10.0816,11618
10.089,8177
10.0963,6686
10.1037,6498
10.1111,5825
10.1185,5787
10.1259,5628
10.1332,5763
10.1406,5944
10.148,6317
10.1554,6571
10.1627,7721
10.1701,7650
10.1775,6852
10.1849,6287
10.1922,6149
10.1996,6135
10.207,6292
10.2144,6074
10.2217,5705
10.2291,5778
10.2365,5540
10.2439,5922
10.2513,5622
10.2586,6082
10.266,5915
10.2734,6123
10.2808,5944
10.2881,5930
10.2955,5975
10.3029,6191
10.3103,5778
10.3176,5959
10.325,5598
10.3324,5881
10.3398,5910
10.3471,6100
10.3545,6188
10.3619,5934
10.3693,5908
10.3766,6536
10.384,6409
10.3914,6530
10.3988,6074
10.4062,5452
10.4135,5741
10.4209,5831
10.4283,6391
10.4357,5913
10.443,5820
10.4504,6103
10.4578,6127
10.4652,5806
10.4725,5705
10.4799,5735
10.4873,5907
10.4947,6868
10.502,7029
10.5094,6521
10.5168,6531
10.5242,6551
10.5316,6203
10.5389,6625
10.5463,6805
10.5537,6902
10.5611,7042
10.5684,6847
10.5758,6871
10.5832,6504
10.5906,7378
10.5979,7982
10.6053,8308
10.6127,8304
10.6201,8623
10.6274,8278
10.6348,7265
10.6422,6713
10.6496,6282
10.657,6366
10.6643,6038
10.6717,6223
10.6791,6240
10.6865,6600
10.6938,6946
10.7012,6798
10.7086,7566
10.716,8327
10.7233,8502
10.7307,7719
10.7381,7038
10.7455,6777
10.7528,6633
10.7602,6328
10.7676,6550
10.775,6552
10.7823,6250
10.7897,6136
10.7971,6279
10.8045,6297
10.8119,6022
10.8192,6318
10.8266,6180
10.834,6781
10.8414,6736
10.8487,6732
10.8561,5983
10.8635,6009
10.8709,6007
10.8782,6311
10.8856,6107
10.893,5865
10.9004,6081
10.9077,5922
10.9151,6384
10.9225,7547
10.9299,10381
10.9373,11535
10.9446,9461
10.952,6795
10.9594,6472
10.9668,6237
10.9741,6487
10.9815,6491
10.9889,6140
10.9963,6308
11.0036,7953
11.011,9239
11.0184,7656
11.0258,7058
11.0331,6998
11.0405,7246
11.0479,6823
11.0553,6817
11.0627,6501
11.07,6212
11.0774,6295
11.0848,6121
11.0922,6181
11.0995,6345
11.1069,6001
11.1143,6262
11.1217,6219
11.129,5927
11.1364,6184
11.1438,6315
11.1512,5864
11.1585,6051
11.1659,6015
11.1733,5974
11.1807,6149
11.188,6550
11.1954,5884
11.2028,5898
11.2102,6292
11.2176,7040
11.2249,7136
11.2323,6727
11.2397,6299
11.2471,6178
11.2544,6573
11.2618,6001
11.2692,6237
11.2766,6252
11.2839,6436
11.2913,6332
11.2987,6319
11.3061,6672
11.3134,6720
11.3208,6660
11.3282,6192
11.3356,6575
11.343,6496
11.3503,6169
11.3577,6255
11.3651,6304
11.3725,6058
11.3798,6520
11.3872,6157
11.3946,6103
11.402,6265
11.4093,6098
11.4167,6064
11.4241,6363
11.4315,6660
11.4388,6319
11.4462,6322
11.4536,6551
11.461,6373
11.4684,5954
11.4757,5772
11.4831,6376
11.4905,6161
11.4979,5904
11.5052,5858
11.5126,6361
11.52,5870
11.5274,5830
11.5347,5822
11.5421,5634
11.5495,5895
11.5569,6101
11.5642,5879
11.5716,6001
11.579,5961
11.5864,5613
11.5938,5896
11.6011,6073
11.6085,6212
11.6159,5742
11.6233,6060
11.6306,6225
11.638,6012
11.6454,5886
11.6528,6076
11.6601,6024
11.6675,6337
11.6749,6894
11.6823,7162
11.6896,6580
11.697,6419
11.7044,6036
11.7118,5726
11.7191,5770
11.7265,5426
11.7339,6561
11.7413,8256
11.7487,9288
11.756,7566
11.7634,6699
11.7708,6280
11.7782,6091
11.7855,6009
11.7929,6034
11.8003,6258
11.8077,6467
11.815,6224
11.8224,6165
11.8298,5977
11.8372,6268
11.8445,6009
11.8519,6123
11.8593,6462
11.8667,6278
11.8741,5869
11.8814,5997
11.8888,5992
11.8962,5785
11.9036,5787
11.9109,5763
11.9183,5534
11.9257,5589
11.9331,6235
11.9404,6475
11.9478,6193
11.9552,5810
11.9626,5986
11.9699,6278
11.9773,5802
11.9847,5698
11.9921,5509
11.9995,5987
12.0068,5923
12.0142,5672
12.0216,5360
12.029,5157
12.0363,5604
12.0437,5760
12.0511,5843
12.0585,5972
12.0658,5739
12.0732,5937
12.0806,5957
12.088,5827
12.0953,5996
12.1027,6463
12.1101,6242
12.1175,6151
12.1248,5991
12.1322,5509
12.1396,5499
12.147,6273
12.1544,6994
12.1617,6704
12.1691,6191
12.1765,6499
12.1839,5744
12.1912,5553
12.1986,5735
12.206,5645
12.2134,5626
12.2207,5351
12.2281,5587
12.2355,5834
12.2429,5855
12.2502,6158
12.2576,5805
12.265,5662
12.2724,5665
12.2798,5871
12.2871,5855
12.2945,6379
12.3019,5754
12.3093,5708
12.3166,5480
12.324,6078
12.3314,6334
12.3388,8202
12.3461,9571
12.3535,9134
12.3609,7972
12.3683,6679
12.3756,6474
12.383,6140
12.3904,6060
12.3978,6131
12.4052,6232
12.4125,6542
12.4199,6976
12.4273,7178
12.4347,6699
12.442,6245
12.4494,6373
12.4568,6287
12.4642,5965
12.4715,5828
12.4789,5800
12.4863,5919
12.4937,5931
12.501,6279
12.5084,6986
12.5158,7775
12.5232,7292
12.5305,6887
12.5379,6629
12.5453,6468
12.5527,6522
12.5601,6149
12.5674,6030
12.5748,6013
12.5822,6061
12.5896,6030
12.5969,6194
12.6043,6160
12.6117,5885
12.6191,5828
12.6264,6149
12.6338,6605
12.6412,6507
12.6486,6859
12.6559,6559
12.6633,5902
12.6707,6349
12.6781,6260
12.6855,5958
12.6928,5735
12.7002,5916
12.7076,5725
12.715,5902
12.7223,6598
12.7297,6047
12.7371,6061
12.7445,5751
12.7518,5804
12.7592,5780
12.7666,6153
12.774,5861
12.7813,5674
12.7887,5709
12.7961,5409
12.8035,5894
12.8109,5682
12.8182,5940
12.8256,5546
12.833,6323
12.8404,6007
12.8477,5857
12.8551,6007
12.8625,5680
12.8699,6095
12.8772,5812
12.8846,5601
12.892,5902
12.8994,5713
12.9067,5932
12.9141,6273
12.9215,6765
12.9289,6710
12.9362,6224
12.9436,6176
12.951,5872
12.9584,6230
12.9658,5773
12.9731,5814
12.9805,5873
12.9879,6567
12.9953,5940
13.0026,5759
13.01,6088
13.0174,6004
13.0248,6084
13.0321,5821
13.0395,5939
13.0469,6311
13.0543,5968
13.0616,6111
13.069,5889
13.0764,6106
13.0838,6023
13.0912,6254
13.0985,6271
13.1059,6260
13.1133,6102
13.1207,5878
13.128,6050
13.1354,5529
13.1428,5812
13.1502,6001
13.1575,5603
13.1649,5522
13.1723,5795
13.1797,5786
13.187,5645
13.1944,5956
13.2018,5809
13.2092,5696
13.2166,5849
13.2239,5781
13.2313,5971
13.2387,6756
13.2461,7508
13.2534,7459
13.2608,6266
13.2682,5896
13.2756,6140
13.2829,6446
13.2903,6804
13.2977,6994
13.3051,6837
13.3124,6047
13.3198,5941
13.3272,6033
13.3346,6069
13.342,5971
13.3493,5962
13.3567,5819
13.3641,6153
13.3715,6479
13.3788,6876
13.3862,7443
13.3936,8100
13.401,8350
13.4083,7097
13.4157,6374
13.4231,5654
13.4305,5642
13.4378,5795
13.4452,6170
13.4526,6286
13.46,6375
13.4673,6156
13.4747,5992
13.4821,6345
13.4895,6595
13.4969,7688
13.5042,7916
13.5116,7171
13.519,6311
13.5264,6023
13.5337,6518
13.5411,6315
13.5485,6153
13.5559,5954
13.5632,5639
13.5706,5995
13.578,5888
13.5854,5858
13.5927,5783
13.6001,6200
13.6075,5773
13.6149,5908
13.6223,6130
13.6296,5995
13.637,5697
13.6444,6254
13.6518,7002
13.6591,7628
13.6665,7475
13.6739,7058
13.6813,6686
13.6886,6948
13.696,7032
13.7034,6828
13.7108,6430
13.7181,6086
13.7255,6137
13.7329,6155
13.7403,5856
13.7477,6138
13.755,5941
13.7624,6323
13.7698,6164
13.7772,6022
13.7845,6173
13.7919,6008
13.7993,7580
13.8067,10972
13.814,13631
13.8214,11712
13.8288,8626
13.8362,7848
13.8435,6821
13.8509,6584
13.8583,6993
13.8657,7280
13.873,6974
13.8804,6577
13.8878,6447
13.8952,6493
13.9026,6564
13.9099,6290
13.9173,6001
13.9247,6026
13.9321,6888
13.9394,7722
13.9468,8177
13.9542,7085
13.9616,6376
13.9689,6293
13.9763,6359
13.9837,6134
13.9911,6234
13.9984,6399
14.0058,6665
14.0132,6404
14.0206,6767
14.028,6482
14.0353,6551
14.0427,6378
14.0501,6313
14.0575,6515
14.0648,6342
14.0722,6022
14.0796,6584
14.087,7444
14.0943,7672
14.1017,7874
14.1091,7209
14.1165,6795
14.1238,6760
14.1312,6468
14.1386,6215
14.146,6372
14.1534,6401
14.1607,5960
14.1681,6266
14.1755,6708
14.1829,6396
14.1902,6538
14.1976,6904
14.205,6332
14.2124,6737
14.2197,6376
14.2271,6510
14.2345,6187
14.2419,6219
14.2492,6334
14.2566,6249
14.264,5998
14.2714,6432
14.2787,6381
14.2861,6525
14.2935,6490
14.3009,6562
14.3083,6827
14.3156,6549
14.323,6557
14.3304,6990
14.3378,6727
14.3451,7236
14.3525,7111
14.3599,6845
14.3673,6632
14.3746,5995
14.382,6839
14.3894,6442
14.3968,6379
14.4041,6948
14.4115,6776
14.4189,6894
14.4263,6288
14.4337,6536
14.441,6909
14.4484,7090
14.4558,7633
14.4632,8117
14.4705,8186
14.4779,7847
14.4853,7230
14.4927,6989
14.5,6335
14.5074,6581
14.5148,6773
14.5222,6528
14.5295,6728
14.5369,6825
14.5443,6949
14.5517,6721
14.5591,6685
14.5664,7217
14.5738,8673
14.5812,9487
14.5886,7892
14.5959,7452
14.6033,6978
14.6107,7404
14.6181,7251
14.6254,7142
14.6328,6887
14.6402,6836
14.6476,6602
14.6549,7019
14.6623,6649
14.6697,6825
14.6771,7186
14.6845,6934
14.6918,6849
14.6992,6699
14.7066,7026
14.714,7553
14.7213,7263
14.7287,7069
14.7361,6749
14.7435,6963
14.7508,6813
14.7582,6940
14.7656,6852
14.773,7176
14.7803,7210
14.7877,7175
14.7951,7172
14.8025,7363
14.8098,7249
14.8172,7691
14.8246,7318
14.832,7161
14.8394,7101
14.8467,7449
14.8541,7180
14.8615,7463
14.8689,7266
14.8762,7285
14.8836,7710
14.891,7665
14.8984,7551
14.9057,7545
14.9131,7447
14.9205,7498
14.9279,7669
14.9352,8281
14.9426,7788
14.95,7721
14.9574,7573
14.9648,7635
14.9721,7720
14.9795,8415
14.9869,7838
14.9943,7784
15.0016,7857
15.009,7909
15.0164,8004
15.0238,7802
15.0311,7196
15.0385,7652
15.0459,8572
15.0533,9780
15.0606,10089
15.068,9050
15.0754,8306
15.0828,8240
15.0902,8221
15.0975,8861
15.1049,8658
15.1123,8071
15.1197,8818
15.127,9883
15.1344,12434
15.1418,11041
15.1492,9697
15.1565,9596
15.1639,8773
15.1713,9355
15.1787,9064
15.186,9417
15.1934,8514
15.2008,8496
15.2082,9275
15.2155,9704
15.2229,9293
15.2303,9095
15.2377,9609
15.2451,9737
15.2524,10090
15.2598,10224
15.2672,10416
15.2746,9804
15.2819,9848
15.2893,10292
15.2967,10055
15.3041,9757
15.3114,9747
15.3188,10165
15.3262,10589
15.3336,10421
15.3409,10732
15.3483,10724
15.3557,10687
15.3631,10339
15.3705,10364
15.3778,10253
15.3852,11019
15.3926,11006
15.4,11196
15.4073,11122
15.4147,10869
15.4221,11217
15.4295,11226
15.4368,11146
15.4442,11249
15.4516,11565
15.459,11539
15.4663,11407
15.4737,11608
15.4811,11859
15.4885,11263
15.4959,11169
15.5032,11111
15.5106,11145
15.518,11337
15.5254,11209
15.5327,11323
15.5401,11333
15.5475,10936
15.5549,11212
15.5622,11562
15.5696,10957
15.577,11421
15.5844,11195
15.5917,10766
15.5991,10791
15.6065,11472
15.6139,11346
15.6212,13281
15.6286,14740
15.636,13523
15.6434,11668
15.6508,10852
15.6581,11788
15.6655,11255
15.6729,11530
15.6803,11797
15.6876,10930
15.695,11018
15.7024,10649
15.7098,10887
15.7171,11035
15.7245,10972
15.7319,10403
15.7393,10499
15.7466,10295
15.754,10571
15.7614,10635
15.7688,11473
15.7762,11239
15.7835,10981
15.7909,11118
15.7983,10757
15.8057,11108
15.813,11258
15.8204,10877
15.8278,11053
15.8352,10954
15.8425,10829
15.8499,10526
15.8573,10972
15.8647,10376
15.872,11332
15.8794,11093
15.8868,10940
15.8942,11284
15.9016,11907
15.9089,12342
15.9163,12383
15.9237,12512
15.9311,12534
15.9384,12478
15.9458,12328
15.9532,12397
15.9606,12840
15.9679,12218
15.9753,12268
15.9827,12032
15.9901,11572
15.9974,11909
16.0048,11863
16.0122,11596
16.0196,11481
16.0269,11415
16.0343,11576
16.0417,12055
16.0491,11341
16.0565,11391
16.0638,11812
16.0712,13650
16.0786,14329
16.086,12463
16.0933,11233
16.1007,11793
16.1081,11626
16.1154,11630
16.1228,11130
16.1302,11354
16.1376,11417
16.145,12130
16.1523,11832
16.1597,11418
16.1671,11445
16.1745,11948
16.1819,11949
16.1892,12142
16.1966,12566
16.204,13755
16.2113,14349
16.2187,14114
16.2261,15562
16.2335,15158
16.2408,15707
16.2482,16912
16.2556,18970
16.263,18674
16.2704,19499
16.2777,18759
16.2851,18543
16.2925,17856
16.2999,16729
16.3073,16472
16.3146,17436
16.322,16937
16.3294,15997
16.3367,15135
16.3441,15272
16.3515,14812
16.3589,14930
16.3663,14652
16.3736,14879
16.381,14226
16.3884,14563
16.3958,14084
16.4031,14350
16.4105,14149
16.4179,13636
16.4253,13776
16.4326,13032
16.44,13284
16.4474,13491
16.4548,17746
16.4622,36291
16.4695,52076
16.4769,35769
16.4843,22192
16.4917,19006
16.499,17499
16.5064,17266
16.5138,19573
16.5212,18720
16.5285,15632
16.5359,14391
16.5433,14561
16.5507,14587
16.558,13562
16.5654,13864
16.5728,13790
16.5802,13600
16.5876,13523
16.5949,13414
16.6023,13368
16.6097,13195
16.617,13383
16.6244,13856
16.6318,13667
16.6392,12559
16.6466,12753
16.6539,12976
16.6613,12871
16.6687,12792
16.6761,13065
16.6834,12614
16.6908,12478
16.6982,12656
16.7056,12282
16.7129,12000
16.7203,12184
16.7277,12744
16.7351,12123
16.7425,11971
16.7498,12210
16.7572,12461
16.7646,12210
16.772,12303
16.7793,12580
16.7867,12192
16.7941,12130
16.8015,12597
16.8088,12677
16.8162,12240
16.8236,12048
16.831,11938
16.8383,12978
16.8457,11973
16.8531,12875
16.8605,12715
16.8679,12469
16.8752,12647
16.8826,11928
16.89,12241
16.8973,12571
16.9047,12105
16.9121,11876
16.9195,11618
16.9269,12038
16.9342,11658
16.9416,11780
16.949,12360
16.9564,11963
16.9637,12644
16.9711,11779
16.9785,12019
16.9859,13142
16.9933,14285
17.0006,14530
17.008,13138
17.0154,12784
17.0227,11654
17.0301,12103
17.0375,12155
17.0449,12234
17.0523,11611
17.0596,12222
17.067,11595
17.0744,11892
17.0818,11715
17.0891,11321
17.0965,11970
17.1039,11871
17.1113,11859
17.1186,11720
17.126,12055
17.1334,12148
17.1408,12718
17.1482,12115
17.1555,12339
17.1629,11937
17.1703,12784
17.1777,13356
17.185,15222
17.1924,16643
17.1998,15682
17.2072,13757
17.2145,13233
17.2219,12982
17.2293,12428
17.2367,12082
17.2441,12620
17.2514,12624
17.2588,12341
17.2662,12435
17.2736,12476
17.2809,12407
17.2883,12532
17.2957,12871
17.303,12269
17.3104,12811
17.3178,12964
17.3252,13326
17.3326,12664
17.3399,12582
17.3473,12535
17.3547,12320
17.3621,12340
17.3694,12953
17.3768,13159
17.3842,13170
17.3916,12663
17.3989,12350
17.4063,12540
17.4137,12860
17.4211,13264
17.4285,12897
17.4358,13084
17.4432,12864
17.4506,13027
17.458,13237
17.4653,12793
17.4727,13634
17.4801,13705
17.4875,13440
