D:\Data GC-MS\2021\STD\46291-21-1 YKK.D 09 Sep 21  02:27 pm
Start of data points
1.29377,4647697
1.3005,4504786
1.30725,4310054
1.31398,4159078
1.32073,4071345
1.32747,3983969
1.33422,3976651
1.34097,3953897
1.3477,3994243
1.35445,4010743
1.36118,4115713
1.36793,4135069
1.37467,4150907
1.38142,4074804
1.38817,3954692
1.3949,3786103
1.40165,3637687
1.40838,3412890
1.41513,3140909
1.42187,2857239
1.42862,2584478
1.43537,2338313
1.4421,2114785
1.44885,1914814
1.45558,1748977
1.46233,1599925
1.46907,1460862
1.47582,1348512
1.48255,1247229
1.4893,1159254
1.51017,3182987
1.51753,2987193
1.52492,2772322
1.5323,2592454
1.53967,2426873
1.54705,2248633
1.55442,2101369
1.5618,1994817
1.56917,1863578
1.57655,1733641
1.58393,1601154
1.5913,1496850
1.59868,1393805
1.60605,1288570
1.61343,1191344
1.62082,1102751
1.62818,1023547
1.63557,939489
1.64293,878511
1.65032,818488
1.65768,756361
1.66507,695320
1.67245,658936
1.67982,640537
1.6872,664049
1.69457,686948
1.70195,647580
1.70932,603051
1.7167,564521
1.72408,527107
1.73145,487529
1.73883,456678
1.7462,427933
1.75358,427869
1.76097,414413
1.76833,389864
1.77572,364643
1.78308,342170
1.79047,316869
1.79783,290078
1.80522,267732
1.8126,243887
1.81997,228821
1.82735,220099
1.83472,213995
1.8421,210615
1.84948,200425
1.85685,191310
1.86423,185514
1.8716,173850
1.87898,164663
1.88635,157648
1.89373,145157
1.90112,136155
1.90848,130666
1.91587,122696
1.92323,113603
1.93062,105929
1.938,97806
1.94537,89982
1.95275,82491
1.96012,76295
1.9675,79112
1.97487,75403
1.98225,71763
1.98963,67103
1.997,60693
2.00438,57759
2.01175,57980
2.01913,61690
2.02652,64809
2.03388,83156
2.04127,88222
2.04863,83537
2.05602,77908
2.06338,72656
2.07077,67081
2.07815,64361
2.08552,61680
2.0929,56323
2.10027,52270
2.10765,48300
2.11503,42946
2.1224,40781
2.12978,36977
2.13715,32718
2.14453,30177
2.1519,27676
2.15928,24565
2.16667,23620
2.17403,21156
2.18142,21097
2.18878,22721
2.19617,26563
2.20355,25800
2.21092,24288
2.2183,25317
2.22567,27098
2.23305,27339
2.24042,27241
2.2478,25012
2.25518,24998
2.26255,28436
2.26993,45359
2.2773,59501
2.28468,61017
2.29205,75986
2.29943,107647
2.30682,122045
2.31418,117527
2.32157,116892
2.32893,123114
2.33632,128287
2.3437,121210
2.35107,113542
2.35845,104078
2.36582,98351
2.3732,116072
2.38057,145732
2.38795,145273
2.39533,136958
2.4027,130758
2.41008,123861
2.41745,113687
2.42483,104300
2.43222,97412
2.43958,87095
2.44697,79966
2.45433,70996
2.46172,63520
2.46908,65724
2.47647,71148
2.48385,103025
2.49122,223426
2.4986,298665
2.50597,294135
2.51335,277761
2.52073,265935
2.5281,250454
2.53548,234159
2.54285,219142
2.55023,201085
2.5576,182056
2.56498,159402
2.57237,141845
2.57973,121127
2.58712,108974
2.59448,119995
2.60187,122206
2.60925,112631
2.61662,103313
2.624,96545
2.63137,91157
2.63875,84546
2.64612,78281
2.6535,71141
2.66088,64509
2.66825,56898
2.67563,50949
2.683,44582
2.69038,39540
2.69777,35128
2.70513,32244
2.71252,29813
2.71988,25521
2.72727,24132
2.73463,23463
2.74202,23611
2.7494,22526
2.75677,20945
2.76415,19033
2.77152,17784
2.7789,16468
2.78628,15177
2.79365,14903
2.80103,15340
2.8084,15222
2.81578,14840
2.82315,13820
2.83053,17156
2.83792,26986
2.84528,35038
2.85267,39060
2.86003,43500
2.86742,55803
2.87478,62585
2.88217,60918
2.88955,57754
2.89692,64925
2.9043,77620
2.91167,78396
2.91905,90102
2.92643,107755
2.9338,107718
2.94118,99386
2.94855,91844
2.95593,86500
2.9633,84126
2.97068,80362
2.97807,70163
2.98543,62003
2.99282,52262
3.00018,45622
3.00757,40215
3.01495,34865
3.02232,33913
3.0297,32337
3.03707,32977
3.04445,34015
3.05182,29807
3.0592,27048
3.06658,24954
3.07395,22541
3.08133,20950
3.0887,18520
3.09608,16884
3.10347,16766
3.11083,27273
3.11822,76394
3.12558,129368
3.13297,138048
3.14033,131201
3.14772,127517
3.1551,120230
3.16247,109841
3.16985,98470
3.17722,84250
3.1846,84105
3.19198,117458
3.19935,142138
3.20673,134138
3.2141,124630
3.22148,128984
3.22885,138912
3.23623,134818
3.24362,121847
3.25098,107646
3.25837,92707
3.26573,80511
3.27312,68456
3.2805,69582
3.28787,80154
3.29525,86970
3.30262,134563
3.31,358431
3.31737,626761
3.32475,671976
3.33213,623250
3.3395,562615
3.34688,519671
3.35425,450233
3.36163,381507
3.36902,327055
3.37638,291455
3.38377,245112
3.39113,203627
3.39852,165301
3.40588,136807
3.41327,110846
3.42065,88764
3.42802,73361
3.4354,58154
3.44277,45768
3.45015,37057
3.45752,33997
3.4649,41729
3.47228,52413
3.47965,58397
3.48703,54295
3.4944,49824
3.50178,45267
3.50917,44252
3.51653,39594
3.52392,33310
3.53128,29199
3.53867,24150
3.54603,20827
3.55342,19179
3.5608,17817
3.56817,17314
3.57555,21258
3.58292,22017
3.5903,23176
3.59768,23310
3.60505,25032
3.61243,27367
3.6198,27213
3.62718,27459
3.63455,25649
3.64193,24226
3.64932,21930
3.65668,20966
3.66407,19941
3.67143,20573
3.67882,29509
3.6862,46562
3.69357,51374
3.70095,49921
3.70832,46622
3.7157,42201
3.72307,38566
3.73045,32256
3.73783,27252
3.7452,21880
3.75258,18956
3.75995,16667
3.76733,15850
3.77472,16337
3.78208,19152
3.78947,25688
3.79683,28192
3.80422,27371
3.81158,24672
3.81897,21772
3.82635,20194
3.83372,18051
3.8411,15614
3.84847,15419
3.85585,18557
3.86323,19757
3.8706,18374
3.87798,17528
3.88535,14828
3.89273,13216
3.9001,12896
3.90748,12015
3.91487,11309
3.92223,11304
3.92962,11392
3.93698,14210
3.94437,15683
3.95175,14764
3.95912,14216
3.9665,12800
3.97387,12317
3.98125,12584
3.98862,13657
3.996,14093
4.00338,13553
4.01075,13342
4.01813,13822
4.0255,16078
4.03288,18101
4.04025,15969
4.04763,15534
4.05502,14858
4.06238,13634
4.06977,11821
4.07713,11997
4.08452,12216
4.0919,16077
4.09927,23006
4.10665,28985
4.11402,30280
4.1214,28060
4.12877,27098
4.13615,25099
4.14353,21157
4.1509,18366
4.15828,16267
4.16565,14497
4.17303,13178
4.18042,14089
4.18778,13652
4.19517,13342
4.20253,12528
4.20992,12866
4.21728,12031
4.22467,12926
4.23205,13393
4.23942,14031
4.2468,13709
4.25417,13688
4.26155,12487
4.26893,12140
4.2763,11423
4.28368,12079
4.29105,11453
4.29843,11190
4.3058,11197
4.31318,10474
4.32057,10452
4.32793,10579
4.33532,9019
4.34268,11135
4.35007,15521
4.35745,20146
4.36482,22820
4.3722,22542
4.37957,21628
4.38695,20327
4.39432,20870
4.4017,19374
4.40908,18883
4.41645,25913
4.42383,76361
4.4312,165538
4.43858,197065
4.44597,185559
4.45333,144498
4.46072,111041
4.46808,84202
4.47547,59955
4.48283,41179
4.49022,29392
4.4976,20646
4.50497,16728
4.51235,15030
4.51972,21659
4.5271,92859
4.53448,322798
4.54185,522989
4.54923,574101
4.5566,569708
4.56398,457423
4.57135,330781
4.57873,215828
4.58612,131174
4.59348,80307
4.60087,50263
4.60823,31480
4.61562,23012
4.62298,18510
4.63037,16285
4.63775,14367
4.64512,12959
4.6525,12357
4.65987,12348
4.66725,11800
4.67463,11248
4.682,11617
4.68938,11532
4.69675,12206
4.70413,12654
4.7115,12580
4.71888,11918
4.72627,11963
4.73363,12981
4.74102,14027
4.74838,14264
4.75577,14347
4.76315,13509
4.77052,12484
4.7779,10858
4.78527,12099
4.79265,12434
4.80002,19379
4.8074,76581
4.81478,203035
4.82215,272434
4.82953,245099
4.8369,171670
4.84428,106707
4.85167,61707
4.85903,37146
4.86642,25036
4.87378,18867
4.88117,20020
4.88853,24687
4.89592,23999
4.9033,19834
4.91067,15651
4.91805,12406
4.92542,10208
4.9328,9421
4.94018,8695
4.94755,9028
4.95493,8869
4.9623,8532
4.96968,8539
4.97705,8348
4.98443,8355
4.99182,8583
4.99918,8723
5.00657,9245
5.01393,10642
5.02132,10872
5.0287,11006
5.03607,10030
5.04345,9677
5.05082,8952
5.0582,9293
5.06557,9736
5.07295,10478
5.08033,10797
5.0877,11554
5.09508,9714
5.10245,9222
5.10983,9085
5.11722,8754
5.12458,8400
5.13197,8550
5.13933,7786
5.14672,8605
5.15408,8552
5.16147,9809
5.16885,11103
5.17622,13989
5.1836,20845
5.19097,26633
5.19835,24053
5.20572,18619
5.2131,13836
5.22048,11375
5.22785,10703
5.23523,11084
5.2426,11017
5.24998,9937
5.25737,9223
5.26473,9074
5.27212,8972
5.27948,9487
5.28687,11115
5.29423,13086
5.30162,12764
5.309,10701
5.31637,10654
5.32375,10541
5.33112,10278
5.3385,9983
5.34588,10596
5.35325,10022
5.36063,10658
5.368,10321
5.37538,9847
5.38275,9893
5.39013,9694
5.39752,9272
5.40488,9254
5.41227,8834
5.41963,8806
5.42702,8694
5.4344,8941
5.44177,8821
5.44915,8979
5.45652,8851
5.4639,8901
5.47127,8761
5.47865,8321
5.48603,8767
5.4934,8416
5.50078,9168
5.50815,8774
5.51553,9550
5.52292,11213
5.53028,12841
5.53767,23112
5.54503,44543
5.55242,52292
5.55978,36770
5.56717,21119
5.57455,13132
5.58192,11551
5.5893,11689
5.59667,13464
5.60405,17754
5.61143,19151
5.6188,35685
5.62618,117455
5.63355,192863
5.64093,160781
5.6483,83660
5.65568,46398
5.66307,55728
5.67043,83779
5.67782,74780
5.68518,43005
5.69257,22192
5.69995,13216
5.70732,10746
5.7147,17318
5.72207,49878
5.72945,97674
5.73682,93938
5.7442,48846
5.75158,21359
5.75895,13813
5.76633,11372
5.7737,10605
5.78108,9856
5.78845,9501
5.79583,9350
5.80322,9302
5.81058,9748
5.81797,9723
5.82533,13802
5.83272,35265
5.8401,65098
5.84747,59898
5.85485,32941
5.86222,17035
5.8696,11797
5.87697,9987
5.88435,8904
5.89173,8244
5.8991,8046
5.90648,8154
5.91385,7934
5.92123,7668
5.92862,7527
5.93598,8162
5.94337,7734
5.95073,7549
5.95812,7573
5.96548,8322
5.97287,7918
5.98025,7601
5.98762,8042
5.995,8178
6.00237,9009
6.00975,27719
6.01713,124598
6.0245,236588
6.03188,191631
6.03925,84137
6.04663,28119
6.054,14944
6.06138,13423
6.06877,11948
6.07613,9144
6.08352,8412
6.09088,8245
6.09827,7995
6.10565,7881
6.11302,6911
6.1204,6992
6.12777,6855
6.13515,6637
6.14252,6682
6.1499,6518
6.15728,6839
6.16465,7111
6.17203,8027
6.1794,8922
6.18678,8893
6.19417,8668
6.20153,9189
6.20892,9083
6.21628,7861
6.22367,6472
6.23103,6665
6.23842,6321
6.2458,6540
6.25317,6521
6.26055,9777
6.26792,12979
6.2753,12069
6.28268,11156
6.29005,9984
6.29743,9500
6.3048,12635
6.31218,17450
6.31955,15304
6.32693,12103
6.33432,23903
6.34168,43770
6.34907,41268
6.35643,21975
6.36382,12185
6.37118,9845
6.37857,9256
6.38595,7759
6.39332,6913
6.4007,7598
6.40807,8001
6.41545,7449
6.42283,6869
6.4302,7014
6.43758,6659
6.44495,7331
6.45233,9017
6.4597,11648
6.46708,11842
6.47447,10998
6.48183,10726
6.48922,11298
6.49658,12547
6.50397,18618
6.51135,24394
6.51872,19427
6.5261,13001
6.53347,10101
6.54085,9200
6.54822,8264
6.5556,8225
6.56298,8246
6.57035,9004
6.57773,9013
6.5851,8993
6.59248,8272
6.59987,8284
6.60723,8553
6.61462,11110
6.62198,15460
6.62937,12981
6.63673,9346
6.64412,8981
6.6515,14705
6.65887,23643
6.66625,23835
6.67362,16587
6.681,11936
6.68838,10312
6.69575,8835
6.70313,9284
6.7105,13248
6.71788,24798
6.72525,34754
6.73263,29683
6.74002,15397
6.74738,9744
6.75477,9268
6.76213,8389
6.76952,8320
6.7769,9596
6.78427,9992
6.79165,7957
6.79902,7590
6.8064,7080
6.81377,7481
6.82115,9248
6.82853,11617
6.8359,10180
6.84328,9388
6.85065,8522
6.85803,8011
6.86542,7341
6.87278,7491
6.88017,7259
6.88753,7229
6.89492,6720
6.90228,7675
6.90967,7696
6.91705,8364
6.92442,8601
6.9318,13331
6.93917,16910
6.94655,12124
6.95393,8847
6.9613,10932
6.96868,15352
6.97605,12768
6.98343,8380
6.9908,6715
6.99818,7003
7.00557,6728
7.01293,6874
7.02032,8925
7.02768,13397
7.03507,20356
7.04243,19265
7.04982,11343
7.0572,8255
7.06457,9594
7.07195,10592
7.07932,9290
7.0867,7700
7.09408,7398
7.10145,7531
7.10883,7254
7.1162,7348
7.12358,6967
7.13095,6381
7.13833,6643
7.14572,6855
7.15308,7444
7.16047,9355
7.16783,9605
7.17522,7820
7.1826,7162
7.18997,6672
7.19735,7188
7.20472,9496
7.2121,12002
7.21947,10766
7.22685,8242
7.23423,7215
7.2416,7017
7.24898,8554
7.25635,9312
7.26373,8384
7.27112,7008
7.27848,7051
7.28587,6149
7.29323,6891
7.30062,6491
7.30798,6828
7.31537,6468
7.32275,6822
7.33012,6484
7.3375,6641
7.34487,6869
7.35225,6662
7.35963,6412
7.367,6955
7.37438,7413
7.38175,10039
7.38913,11622
7.3965,10114
7.40388,7491
7.41127,7869
7.41863,11257
7.42602,14431
7.43338,11577
7.44077,8087
7.44815,7270
7.45552,7077
7.4629,6674
7.47027,7286
7.47765,7175
7.48502,7426
7.4924,6775
7.49978,6521
7.50715,6130
7.51453,5689
7.5219,5847
7.52928,5477
7.53667,5463
7.54403,5632
7.55142,5380
7.55878,5456
7.56617,5781
7.57353,5942
7.58092,6201
7.5883,6023
7.59567,5593
7.60305,5880
7.61042,6593
7.6178,6015
7.62517,5747
7.63255,5238
7.63993,6069
7.6473,6858
7.65468,8459
7.66205,7663
7.66943,6289
7.67682,5751
7.68418,5358
7.69157,5578
7.69893,5458
7.70632,6115
7.71368,5340
7.72107,5458
7.72845,5902
7.73582,6024
7.7432,7356
7.75057,8733
7.75795,8245
7.76533,7772
7.7727,6719
7.78008,6669
7.78745,5807
7.79483,5559
7.8022,5811
7.80958,5965
7.81697,5918
7.82433,6657
7.83172,6736
7.83908,6363
7.84647,6449
7.85385,5804
7.86122,5581
7.8686,5251
7.87597,5607
7.88335,5915
7.89072,6292
7.8981,6871
7.90548,6741
7.91285,5835
7.92023,5485
7.9276,5449
7.93498,5547
7.94237,5742
7.94973,5726
7.95712,5586
7.96448,5667
7.97187,5652
7.97923,5712
7.98662,5431
7.994,5527
8.00137,5308
8.00875,5202
8.01612,5750
8.0235,5088
8.03088,5094
8.03825,5507
8.04563,5220
8.053,5222
8.06038,5182
8.06775,5143
8.07513,5351
8.08252,5288
8.08988,5670
8.09727,5908
8.10463,6478
8.11202,7361
8.1194,6882
8.12677,6310
8.13415,6484
8.14152,6159
8.1489,5827
8.15627,6374
8.16365,6249
8.17103,6211
8.1784,6050
8.18578,5643
8.19315,6375
8.20053,7327
8.2079,6796
8.21528,6039
8.22267,5818
8.23003,5953
8.23742,6055
8.24478,6518
8.25217,11119
8.25955,14049
8.26692,10597
8.2743,7292
8.28167,5973
8.28905,5849
8.29642,5893
8.3038,5630
8.31118,5753
8.31855,5952
8.32593,6165
8.3333,5916
8.34068,5302
8.34807,5553
8.35543,5462
8.36282,5899
8.37018,5984
8.37757,5762
8.38493,5265
8.39232,5808
8.3997,5476
8.40707,5739
8.41445,5943
8.42182,6486
8.4292,6582
8.43658,7056
8.44395,6996
8.45133,6799
8.4587,6309
8.46608,6008
8.47345,6011
8.48083,5906
8.48822,6405
8.49558,5983
8.50297,5934
8.51033,5732
8.51772,5363
8.5251,5685
8.53247,6011
8.53985,5915
8.54722,5782
8.5546,6903
8.56197,8765
8.56935,9526
8.57673,11813
8.5841,10238
8.59148,8123
8.59885,7240
8.60623,5958
8.61362,5991
8.62098,5870
8.62837,6099
8.63573,5829
8.64312,5824
8.65048,6316
8.65787,5558
8.66525,5967
8.67262,5730
8.68,6152
8.68737,6931
8.69475,7045
8.70213,6836
8.7095,6567
8.71688,6460
8.72425,6879
8.73163,8050
8.739,16215
8.74638,34876
8.75377,62084
8.76113,65328
8.76852,42961
8.77588,31372
8.78327,25985
8.79063,22698
8.79802,19746
8.8054,18590
8.81277,17295
8.82015,16678
8.82752,16076
8.8349,15885
8.84228,15312
8.84965,13895
8.85703,13846
8.8644,13978
8.87178,13724
8.87915,13248
8.88653,13708
8.89392,14662
8.90128,14011
8.90867,13088
8.91603,12999
8.92342,12825
8.9308,13358
8.93817,12597
8.94555,11545
8.95292,11069
8.9603,12028
8.96767,11690
8.97505,12001
8.98243,11787
8.9898,11151
8.99718,11879
9.00455,11395
9.01193,11345
9.01932,11090
9.02668,11132
9.03407,11147
9.04143,11223
9.04882,11857
9.05618,11193
9.06357,11107
9.07095,10978
9.07832,10989
9.0857,10377
9.09307,11026
9.10045,11598
9.10783,11140
9.1152,11809
9.12258,11277
9.12995,12449
9.13733,12045
9.1447,9489
9.15208,8303
9.15947,8361
9.16683,10477
9.17422,8475
9.18158,7440
9.18897,6819
9.19635,6394
9.20372,6392
9.2111,5936
9.21847,6260
9.22585,6842
9.23322,7521
9.2406,7117
9.24798,7285
9.25535,7283
9.26273,7356
9.2701,6675
9.27748,6632
9.28487,6359
9.29223,6198
9.29962,6602
9.30698,6435
9.31437,6638
9.32173,7031
9.32912,7586
9.3365,7564
9.34387,6717
9.35125,6289
9.35862,7443
9.366,11012
9.37337,10742
9.38075,8443
9.38813,7100
9.3955,6491
9.40288,6459
9.41025,6720
9.41763,7157
9.42502,6809
9.43238,7095
9.43977,7293
9.44713,7099
9.45452,6720
9.46188,6930
9.46927,6773
9.47665,6613
9.48402,7432
9.4914,7394
9.49877,8165
9.50615,7037
9.51353,6728
9.5209,6686
9.52828,7842
9.53565,8904
9.54303,9869
9.5504,8257
9.55778,6797
9.56517,6653
9.57253,6213
9.57992,6266
9.58728,6999
9.59467,7722
9.60205,7164
9.60942,6774
9.6168,7147
9.62417,6825
9.63155,7320
9.63892,7122
9.6463,7185
9.65368,7406
9.66105,7382
9.66843,7251
9.6758,8579
9.68318,13046
9.69057,18253
9.69793,15691
9.70532,10452
9.71268,7706
9.72007,7658
9.72743,7705
9.73482,7113
9.7422,7190
9.74957,7901
9.75695,7640
9.76432,6835
9.7717,7056
9.77908,7317
9.78645,6939
9.79383,6968
9.8012,6727
9.80858,7057
9.81595,7264
9.82333,6818
9.83072,7067
9.83808,6882
9.84547,6751
9.85283,7209
9.86022,8439
9.8676,7990
9.87497,6980
9.88235,6670
9.88972,6305
9.8971,6189
9.90447,5835
9.91185,5498
9.91923,6275
9.9266,6904
9.93398,7232
9.94135,6768
9.94873,6724
9.9561,6234
9.96348,6074
9.97087,6308
9.97823,6440
9.98562,6104
9.99298,6384
10.0004,6518
10.0078,6697
10.0151,6629
10.0225,6615
10.0299,6417
10.0373,5851
10.0446,6018
10.052,5666
10.0594,6050
10.0668,7615
10.0741,10487
10.0815,10975
10.0889,8137
10.0963,6814
10.1036,6574
10.111,6185
10.1184,6289
10.1258,6328
10.1331,6216
10.1405,6194
10.1479,6344
10.1553,6728
10.1627,7011
10.17,6803
10.1774,6809
10.1848,6496
10.1922,6606
10.1995,6131
10.2069,6515
10.2143,6517
10.2217,6233
10.229,5682
10.2364,5999
10.2438,5995
10.2512,5920
10.2585,6601
10.2659,6875
10.2733,6252
10.2807,6934
10.2881,7379
10.2954,7156
10.3028,7167
10.3102,6757
10.3176,5957
10.3249,6293
10.3323,7090
10.3397,8592
10.3471,9457
10.3544,8127
10.3618,6923
10.3692,6353
10.3766,6628
10.3839,6841
10.3913,6649
10.3987,6313
10.4061,6306
10.4135,5927
10.4208,6076
10.4282,6174
10.4356,6394
10.443,6222
10.4503,6159
10.4577,6534
10.4651,6404
10.4725,5848
10.4798,5746
10.4872,6309
10.4946,6758
10.502,6963
10.5093,7141
10.5167,9417
10.5241,11845
10.5315,10868
10.5388,10613
10.5462,13705
10.5536,16064
10.561,17054
10.5684,17417
10.5757,18469
10.5831,17878
10.5905,18269
10.5979,19355
10.6052,18444
10.6126,18235
10.62,15929
10.6274,11930
10.6347,9149
10.6421,7582
10.6495,7159
10.6569,6911
10.6642,6840
10.6716,7733
10.679,8470
10.6864,8327
10.6938,7262
10.7011,7298
10.7085,8693
10.7159,10635
10.7233,9677
10.7306,8059
10.738,7065
10.7454,6889
10.7528,6590
10.7601,6894
10.7675,6940
10.7749,7051
10.7823,7695
10.7896,7473
10.797,7184
10.8044,6456
10.8118,6962
10.8192,6898
10.8265,6738
10.8339,8207
10.8413,12213
10.8487,14475
10.856,9365
10.8634,7215
10.8708,7162
10.8782,6953
10.8855,6571
10.8929,6481
10.9003,6585
10.9077,5998
10.915,6355
10.9224,7776
10.9298,8668
10.9372,8458
10.9446,7352
10.9519,6668
10.9593,6493
10.9667,6653
10.9741,6995
10.9814,7672
10.9888,7446
10.9962,7970
11.0036,10979
11.0109,11504
11.0183,9316
11.0257,7467
11.0331,7453
11.0404,6912
11.0478,6422
11.0552,6676
11.0626,6365
11.0699,6914
11.0773,7603
11.0847,7822
11.0921,6465
11.0995,6196
11.1068,6662
11.1142,6833
11.1216,7278
11.129,7346
11.1363,7055
11.1437,6697
11.1511,6630
11.1585,6590
11.1658,6169
11.1732,6661
11.1806,6327
11.188,6844
11.1953,7423
11.2027,6909
11.2101,8374
11.2175,11424
11.2249,11945
11.2322,8889
11.2396,6959
11.247,6677
11.2544,6395
11.2617,6561
11.2691,6561
11.2765,6228
11.2839,6171
11.2912,6499
11.2986,7495
11.306,7582
11.3134,7343
11.3207,6910
11.3281,6420
11.3355,6230
11.3429,6174
11.3503,6343
11.3576,6406
11.365,5678
11.3724,6607
11.3798,6798
11.3871,7290
11.3945,7218
11.4019,6876
11.4093,6242
11.4166,6323
11.424,6577
11.4314,6637
11.4388,6400
11.4461,6326
11.4535,6559
11.4609,6852
11.4683,7052
11.4756,6920
11.483,7138
11.4904,6895
11.4978,6625
11.5052,6606
11.5125,6323
11.5199,6150
11.5273,6583
11.5347,6275
11.542,6254
11.5494,6621
11.5568,6876
11.5642,6996
11.5715,6380
11.5789,6699
11.5863,6577
11.5937,6486
11.601,6266
11.6084,6057
11.6158,6269
11.6232,6482
11.6306,6285
11.6379,5735
11.6453,5830
11.6527,5648
11.6601,5709
11.6674,7002
11.6748,8341
11.6822,8711
11.6896,8178
11.6969,7044
11.7043,6421
11.7117,6414
11.7191,6328
11.7264,6506
11.7338,7025
11.7412,10009
11.7486,11552
11.756,9705
11.7633,7085
11.7707,6508
11.7781,6490
11.7855,6838
11.7928,6556
11.8002,7297
11.8076,6913
11.815,7151
11.8223,7901
11.8297,7764
11.8371,6988
11.8445,6603
11.8518,6821
11.8592,6830
11.8666,6070
11.874,6083
11.8813,5900
11.8887,5856
11.8961,5963
11.9035,5648
11.9109,6303
11.9182,7201
11.9256,10266
11.933,13493
11.9404,12190
11.9477,8249
11.9551,7120
11.9625,6770
11.9699,6289
11.9772,6171
11.9846,5845
11.992,6123
11.9994,6116
12.0067,5929
12.0141,5769
12.0215,6277
12.0289,6034
12.0363,5826
12.0436,5643
12.051,5638
12.0584,5898
12.0658,6308
12.0731,5957
12.0805,6089
12.0879,6024
12.0953,6425
12.1026,7199
12.11,7516
12.1174,7560
12.1248,6530
12.1321,6192
12.1395,6485
12.1469,6552
12.1543,6049
12.1617,6395
12.169,6066
12.1764,5915
12.1838,6298
12.1912,6580
12.1985,5810
12.2059,6073
12.2133,5953
12.2207,6261
12.228,6227
12.2354,6040
12.2428,6151
12.2502,6185
12.2575,6596
12.2649,6608
12.2723,6389
12.2797,6236
12.287,6809
12.2944,6541
12.3018,6705
12.3092,6545
12.3166,6615
12.3239,6853
12.3313,7060
12.3387,7217
12.3461,8097
12.3534,8410
12.3608,8073
12.3682,8156
12.3756,7691
12.3829,7209
12.3903,6846
12.3977,6713
12.4051,6686
12.4124,7304
12.4198,8187
12.4272,8349
12.4346,7533
12.442,7013
12.4493,6899
12.4567,6996
12.4641,6969
12.4715,6304
12.4788,6568
12.4862,6180
12.4936,6354
12.501,6653
12.5083,7989
12.5157,8792
12.5231,10698
12.5305,10891
12.5378,9191
12.5452,7608
12.5526,7157
12.56,8233
12.5674,9505
12.5747,9883
12.5821,8463
12.5895,7628
12.5969,6598
12.6042,6417
12.6116,6468
12.619,6366
12.6264,6952
12.6337,7543
12.6411,7484
12.6485,6978
12.6559,6521
12.6632,6454
12.6706,6813
12.678,6605
12.6854,6822
12.6928,6756
12.7001,7153
12.7075,9143
12.7149,14792
12.7223,17289
12.7296,12231
12.737,7832
12.7444,6770
12.7518,6507
12.7591,6608
12.7665,7141
12.7739,7382
12.7813,7440
12.7886,6578
12.796,6687
12.8034,6632
12.8108,6810
12.8181,7245
12.8255,7299
12.8329,6843
12.8403,7901
12.8477,9227
12.855,8532
12.8624,6888
12.8698,7040
12.8772,7016
12.8845,6835
12.8919,6797
12.8993,6428
12.9067,6199
12.914,6969
12.9214,7162
12.9288,7084
12.9362,7071
12.9435,6995
12.9509,7424
12.9583,7590
12.9657,7392
12.9731,6607
12.9804,6773
12.9878,6834
12.9952,6730
13.0026,6917
13.0099,7067
13.0173,6946
13.0247,7344
13.0321,6867
13.0394,6934
13.0468,7076
13.0542,7144
13.0616,7170
13.0689,8911
13.0763,10689
13.0837,9353
13.0911,7812
13.0985,6976
13.1058,6915
13.1132,7364
13.1206,7515
13.128,7954
13.1353,7320
13.1427,6920
13.1501,7183
13.1575,6817
13.1648,6569
13.1722,6964
13.1796,7101
13.187,7556
13.1943,8038
13.2017,7725
13.2091,6954
13.2165,6727
13.2238,6472
13.2312,6809
13.2386,7872
13.246,8811
13.2534,8296
13.2607,7440
13.2681,6767
13.2755,7263
13.2829,7506
13.2902,7783
13.2976,7491
13.305,6914
13.3124,6509
13.3197,6715
13.3271,7099
13.3345,7373
13.3419,7832
13.3492,7487
13.3566,7239
13.364,7241
13.3714,7389
13.3788,7545
13.3861,7259
13.3935,8610
13.4009,8564
13.4083,7966
13.4156,7622
13.423,7095
13.4304,7116
13.4378,6983
13.4451,6863
13.4525,7490
13.4599,8228
13.4673,7745
13.4746,7813
13.482,7381
13.4894,7552
13.4968,8179
13.5042,8166
13.5115,7914
13.5189,7083
13.5263,6866
13.5337,6915
13.541,7527
13.5484,8045
13.5558,8183
13.5632,8231
13.5705,7712
13.5779,6994
13.5853,6592
13.5927,7149
13.6,7030
13.6074,7022
13.6148,6720
13.6222,6685
13.6295,6971
13.6369,6821
13.6443,6625
13.6517,6741
13.6591,7110
13.6664,7370
13.6738,7643
13.6812,7373
13.6886,8188
13.6959,8602
13.7033,8212
13.7107,7818
13.7181,7630
13.7254,6950
13.7328,7340
13.7402,7022
13.7476,6959
13.7549,6572
13.7623,6607
13.7697,6565
13.7771,6701
13.7845,6944
13.7918,6760
13.7992,7149
13.8066,8770
13.814,9980
13.8213,9551
13.8287,8265
13.8361,8048
13.8435,7715
13.8508,7072
13.8582,7457
13.8656,7669
13.873,7588
13.8803,7238
13.8877,7664
13.8951,7556
13.9025,7216
13.9099,7303
13.9172,7469
13.9246,7338
13.932,7947
13.9394,8889
13.9467,8686
13.9541,8453
13.9615,7403
13.9689,7132
13.9762,7349
13.9836,7197
13.991,8046
13.9984,8496
14.0057,8401
14.0131,8089
14.0205,7946
14.0279,8579
14.0353,8898
14.0426,7974
14.05,7727
14.0574,7523
14.0648,7812
14.0721,7700
14.0795,8997
14.0869,10502
14.0943,10122
14.1016,8480
14.109,7975
14.1164,7989
14.1238,7567
14.1311,7561
14.1385,7535
14.1459,7088
14.1533,7199
14.1606,7341
14.168,7905
14.1754,7641
14.1828,7074
14.1902,7487
14.1975,7367
14.2049,7222
14.2123,7205
14.2197,7158
14.227,7322
14.2344,7165
14.2418,7024
14.2492,7174
14.2565,7096
14.2639,7388
14.2713,7282
14.2787,7229
14.286,7120
14.2934,7324
14.3008,7835
14.3082,7716
14.3156,8200
14.3229,8429
14.3303,7881
14.3377,7700
14.3451,7505
14.3524,7882
14.3598,7671
14.3672,7668
14.3746,7691
14.3819,7722
14.3893,7664
14.3967,7953
14.4041,8286
14.4114,7979
14.4188,8013
14.4262,8033
14.4336,7753
14.441,8056
14.4483,8753
14.4557,9063
14.4631,8884
14.4705,8761
14.4778,8286
14.4852,8185
14.4926,7976
14.5,7759
14.5073,7760
14.5147,7941
14.5221,7648
14.5295,7434
14.5368,7711
14.5442,7547
14.5516,7904
14.559,7910
14.5663,7749
14.5737,8944
14.5811,10075
14.5885,9253
14.5959,8684
14.6032,8410
14.6106,8516
14.618,8633
14.6254,8611
14.6327,8302
14.6401,7683
14.6475,7889
14.6549,8137
14.6622,8337
14.6696,8048
14.677,8316
14.6844,7878
14.6917,8000
14.6991,8800
14.7065,8324
14.7139,8695
14.7213,8053
14.7286,8359
14.736,8490
14.7434,8381
14.7508,8282
14.7581,8179
14.7655,8221
14.7729,8704
14.7803,8266
14.7876,7947
14.795,8273
14.8024,8332
14.8098,8691
14.8171,8455
14.8245,8188
14.8319,8120
14.8393,8426
14.8467,7983
14.854,8266
14.8614,8424
14.8688,8615
14.8762,8587
14.8835,9532
14.8909,9546
14.8983,8504
14.9057,8563
14.913,8760
14.9204,8394
14.9278,9380
14.9352,10619
14.9425,10757
14.9499,9094
14.9573,9556
14.9647,8429
14.972,8634
14.9794,9205
14.9868,8717
14.9942,8980
15.0016,9123
15.0089,8901
15.0163,9196
15.0237,8898
15.0311,8513
15.0384,8895
15.0458,8836
15.0532,9301
15.0606,10644
15.0679,10245
15.0753,9593
15.0827,9537
15.0901,9521
15.0974,9270
15.1048,9533
15.1122,9031
15.1196,9103
15.127,9583
15.1343,12007
15.1417,12585
15.1491,10398
15.1565,9784
15.1638,9357
15.1712,9268
15.1786,9358
15.186,9812
15.1933,9849
15.2007,9471
15.2081,9721
15.2155,9569
15.2228,9856
15.2302,9760
15.2376,10163
15.245,10702
15.2524,11291
15.2597,11333
15.2671,10903
15.2745,10124
15.2819,10353
15.2892,10547
15.2966,9981
15.304,9433
15.3114,10185
15.3187,9404
15.3261,10266
15.3335,10726
15.3409,10984
15.3482,10086
15.3556,11250
15.363,10637
15.3704,10922
15.3777,10509
15.3851,10463
15.3925,10934
15.3999,10934
15.4073,10376
15.4146,10052
15.422,10025
15.4294,10606
15.4368,10679
15.4441,10752
15.4515,10877
15.4589,10879
15.4663,11463
15.4736,10745
15.481,10924
15.4884,10705
15.4958,10819
15.5031,11100
15.5105,11044
15.5179,11286
15.5253,10676
15.5327,10733
15.54,11364
15.5474,11046
15.5548,11150
15.5622,10860
15.5695,11252
15.5769,11644
15.5843,11488
15.5917,11775
15.599,13055
15.6064,13262
15.6138,13815
15.6212,16102
15.6285,18218
15.6359,16714
15.6433,13337
15.6507,12157
15.6581,11728
15.6654,12035
15.6728,12160
15.6802,12327
15.6876,11774
15.6949,12012
15.7023,12047
15.7097,11706
15.7171,12510
15.7244,11801
15.7318,12199
15.7392,12526
15.7466,12005
15.7539,11978
15.7613,12020
15.7687,12027
15.7761,12028
15.7835,12116
15.7908,12501
15.7982,13063
15.8056,12735
15.813,12805
15.8203,12787
15.8277,13020
15.8351,12711
15.8425,12860
15.8498,12715
15.8572,12647
15.8646,12566
15.872,13333
15.8793,13062
15.8867,13003
15.8941,13436
15.9015,14224
15.9088,15438
15.9162,15591
15.9236,14713
15.931,14069
15.9384,13682
15.9457,14003
15.9531,13875
15.9605,14559
15.9679,14065
15.9752,13770
15.9826,14455
15.99,14841
15.9974,15596
16.0047,15491
16.0121,14757
16.0195,13623
16.0269,14640
16.0342,14430
16.0416,14028
16.049,13905
16.0564,14588
16.0637,14552
16.0711,17162
16.0785,19138
16.0859,16839
16.0933,14881
16.1006,15456
16.108,14919
16.1154,14252
16.1228,14593
16.1301,14511
16.1375,14987
16.1449,14414
16.1523,14831
16.1596,14695
16.167,14435
16.1744,14612
16.1818,14077
16.1892,14587
16.1965,17261
16.2039,21076
16.2113,25257
16.2187,24293
16.226,20065
16.2334,17430
16.2408,16252
16.2481,15011
16.2555,14816
16.2629,15326
16.2703,15209
16.2777,15077
16.285,14858
16.2924,14673
16.2998,14464
16.3072,14222
16.3145,14101
16.3219,14863
16.3293,15344
16.3367,14313
16.344,14179
16.3514,14221
16.3588,15114
16.3662,14722
16.3736,14493
16.3809,14651
16.3883,14502
16.3957,14400
16.4031,14781
16.4104,14624
16.4178,14620
16.4252,14054
16.4326,14259
16.4399,13862
16.4473,14411
16.4547,14673
16.4621,15293
16.4694,17010
16.4768,16297
16.4842,15703
16.4916,15672
16.499,16712
16.5063,17181
16.5137,19197
16.5211,19978
16.5284,17421
16.5358,15593
16.5432,15436
16.5506,15127
16.558,14929
16.5653,14641
16.5727,14757
16.5801,14793
16.5875,14561
16.5949,14750
16.6022,14418
16.6096,14125
16.617,15087
16.6244,14650
16.6317,14705
16.6391,14647
16.6465,14453
16.6538,14383
16.6612,14549
16.6686,14644
16.676,14006
16.6834,15101
16.6907,15320
16.6981,14815
16.7055,14102
16.7129,13927
16.7202,13757
16.7276,14694
16.735,14134
16.7424,13801
16.7497,13423
16.7571,13338
16.7645,13796
16.7719,13274
16.7793,14186
16.7866,13430
16.794,14102
16.8014,16130
16.8088,18387
16.8161,16120
16.8235,15502
16.8309,15521
16.8383,15766
16.8456,14746
16.853,14728
16.8604,15504
16.8678,15351
16.8752,14253
16.8825,13502
16.8899,13387
16.8973,13570
16.9047,13170
16.912,13385
16.9194,13374
16.9268,13585
16.9341,13911
16.9415,14255
16.9489,14731
16.9563,14315
16.9637,14870
16.971,14094
16.9784,14023
16.9858,13707
16.9932,15614
17.0006,16615
17.0079,15515
17.0153,14346
17.0227,13624
17.03,13751
17.0374,13659
17.0448,13343
17.0522,13680
17.0596,13872
17.0669,13710
17.0743,13851
17.0817,13739
17.0891,13924
17.0964,13835
17.1038,13392
17.1112,13498
17.1186,13351
17.1259,13684
17.1333,14229
17.1407,14910
17.1481,14367
17.1554,14738
17.1628,14966
17.1702,14910
17.1776,14988
17.185,15726
17.1923,16965
17.1997,16247
17.2071,15023
17.2144,14309
17.2218,14146
17.2292,13700
17.2366,14338
17.244,13583
17.2513,13911
17.2587,13526
17.2661,13877
17.2735,14270
17.2809,13436
17.2882,13484
17.2956,14013
17.303,13912
17.3104,13405
17.3177,13707
17.3251,13839
17.3325,13236
17.3398,13445
17.3472,13478
17.3546,13055
17.362,13468
17.3694,12882
17.3767,13546
17.3841,13195
17.3915,12854
17.3989,13472
17.4063,13185
17.4136,13589
17.421,13432
17.4284,13043
17.4357,13317
17.4431,13074
17.4505,14145
17.4579,13738
17.4653,14241
17.4726,15506
17.48,16524
17.4874,18405
