D:\Data GC-MS\2021\9 SEPTEMBER\12-09-21\SPME 46291-21-1 YKK.D 12 Sep 21  09:52 am
Start of data points
1.29382,37978
1.30055,39941
1.3073,42203
1.31403,44073
1.32078,44827
1.32753,45980
1.33427,47267
1.34102,47944
1.34775,48710
1.3545,49663
1.36123,50005
1.36798,50617
1.37473,50957
1.38147,51976
1.38822,51887
1.39495,52901
1.4017,53001
1.40843,52865
1.41518,53095
1.42193,52896
1.42867,53351
1.43542,53378
1.44215,53061
1.4489,53555
1.45563,55057
1.46238,56814
1.46912,59190
1.47587,61221
1.48262,62879
1.48935,64406
1.51022,198742
1.51758,197079
1.52497,194765
1.53235,192646
1.53972,190088
1.5471,187429
1.55447,185903
1.56185,182403
1.56923,178783
1.5766,176720
1.58398,175541
1.59135,171871
1.59873,167170
1.6061,165927
1.61348,166282
1.62087,163105
1.62823,160879
1.63562,156419
1.64298,156050
1.65037,152946
1.65775,150753
1.66512,149240
1.6725,150354
1.67987,145092
1.68725,143691
1.69462,142694
1.702,141177
1.70938,141340
1.71675,142738
1.72413,143055
1.7315,144569
1.73888,145503
1.74627,145418
1.75363,144100
1.76102,142631
1.76838,141613
1.77577,140506
1.78313,136698
1.79052,137632
1.7979,136046
1.80527,136898
1.81265,138499
1.82002,139977
1.8274,143513
1.83478,143600
1.84215,149668
1.84953,153475
1.8569,159317
1.86428,163315
1.87165,164319
1.87903,167526
1.88642,170492
1.89378,170633
1.90117,170960
1.90853,169250
1.91592,164657
1.9233,162377
1.93067,155802
1.93805,152567
1.94542,146621
1.9528,142293
1.96017,137536
1.96755,135052
1.97493,128408
1.9823,125716
1.98968,120885
1.99705,117747
2.00443,115836
2.01182,113938
2.01918,109919
2.02657,107653
2.03393,105087
2.04132,104762
2.04868,102485
2.05607,102338
2.06345,98987
2.07082,98440
2.0782,97719
2.08557,99045
2.09295,96957
2.10032,93569
2.1077,94115
2.11508,92534
2.12245,90716
2.12983,88143
2.1372,86200
2.14458,85360
2.15197,84762
2.15933,82356
2.16672,81734
2.17408,81103
2.18147,80428
2.18883,78039
2.19622,77989
2.2036,77496
2.21097,76421
2.21835,76449
2.22572,75925
2.2331,76631
2.24048,74975
2.24785,75740
2.25523,74573
2.2626,75016
2.26998,73515
2.27735,73805
2.28473,74839
2.29212,78586
2.29948,81245
2.30687,85994
2.31423,89895
2.32162,93182
2.329,96109
2.33637,97641
2.34375,96262
2.35112,97580
2.3585,95284
2.36587,93506
2.37325,93593
2.38063,88812
2.388,86084
2.39538,84538
2.40275,85572
2.41013,85403
2.41752,85523
2.42488,85026
2.43227,85786
2.43963,84668
2.44702,82361
2.45438,80459
2.46177,78291
2.46915,75671
2.47652,72540
2.4839,69850
2.49127,68741
2.49865,69122
2.50603,74780
2.5134,86226
2.52078,100247
2.52815,113422
2.53553,123870
2.5429,127430
2.55028,125675
2.55767,122520
2.56503,114952
2.57242,107832
2.57978,100771
2.58717,94401
2.59455,86928
2.60192,83196
2.6093,79582
2.61667,78981
2.62405,79972
2.63142,81678
2.6388,82099
2.64618,81826
2.65355,79811
2.66093,78401
2.6683,74657
2.67568,71652
2.68305,69190
2.69043,66740
2.69782,63652
2.70518,60200
2.71257,59603
2.71993,56545
2.72732,55339
2.7347,52783
2.74207,50557
2.74945,50324
2.75682,49714
2.7642,49721
2.77157,47996
2.77895,47770
2.78633,47367
2.7937,45588
2.80108,43788
2.80845,43484
2.81583,43195
2.82322,42123
2.83058,42120
2.83797,41378
2.84533,42582
2.85272,42095
2.86008,44790
2.86747,47693
2.87485,50086
2.88222,52829
2.8896,53779
2.89697,57224
2.90435,57376
2.91173,57679
2.9191,57792
2.92648,59250
2.93385,62294
2.94123,65856
2.9486,70235
2.95598,70988
2.96337,71725
2.97073,71854
2.97812,68140
2.98548,63991
2.99287,60244
3.00025,58022
3.00762,55405
3.015,52005
3.02237,49563
3.02975,47582
3.03712,46188
3.0445,45018
3.05188,47006
3.05925,46112
3.06663,44970
3.074,43834
3.08138,43766
3.08877,42433
3.09613,39809
3.10352,39043
3.11088,37341
3.11827,35123
3.12563,36426
3.13302,43707
3.1404,59105
3.14777,78022
3.15515,93284
3.16252,98083
3.1699,96155
3.17728,91538
3.18465,82944
3.19203,74729
3.1994,69429
3.20678,69494
3.21415,78292
3.22153,88471
3.22892,95658
3.23628,95466
3.24367,99093
3.25103,100183
3.25842,96783
3.2658,91606
3.27317,83475
3.28055,73254
3.28792,66396
3.2953,59523
3.30267,59816
3.31005,67942
3.31743,107163
3.3248,270305
3.33218,590601
3.33955,873216
3.34693,997560
3.3543,983263
3.36168,877722
3.36907,736674
3.37643,590465
3.38382,481060
3.39118,385068
3.39857,314154
3.40595,259149
3.41332,209496
3.4207,170845
3.42807,135941
3.43545,108831
3.44282,90486
3.4502,74112
3.45758,62872
3.46495,56366
3.47233,50397
3.4797,52336
3.48708,57238
3.49447,64929
3.50183,69130
3.50922,66592
3.51658,62065
3.52397,57551
3.53133,58159
3.53872,60951
3.5461,59712
3.55347,57004
3.56085,52556
3.56822,48253
3.5756,45488
3.58298,42983
3.59035,42437
3.59773,42782
3.6051,43631
3.61248,41085
3.61985,41987
3.62723,42951
3.63462,43766
3.64198,42742
3.64937,41500
3.65673,39584
3.66412,38270
3.6715,36338
3.67887,36390
3.68625,36449
3.69362,45140
3.701,63347
3.70837,80491
3.71575,86812
3.72313,80269
3.7305,69344
3.73788,59108
3.74525,48390
3.75263,41949
3.76002,36063
3.76738,32024
3.77477,30418
3.78213,29366
3.78952,30451
3.79688,32885
3.80427,36193
3.81165,39169
3.81902,39035
3.8264,38202
3.83377,34111
3.84115,30961
3.84853,28658
3.8559,26951
3.86328,28858
3.87065,32895
3.87803,35260
3.8854,35426
3.89278,33518
3.90017,30122
3.90753,28689
3.91492,27035
3.92228,25954
3.92967,25901
3.93703,25141
3.94442,25472
3.9518,27332
3.95917,30022
3.96655,30393
3.97392,27707
3.9813,26058
3.98868,24240
3.99605,24220
4.00343,25528
4.0108,25539
4.01818,25687
4.02555,25753
4.03293,27139
4.04032,29636
4.04768,30590
4.05507,31068
4.06243,29405
4.06982,27660
4.0772,26709
4.08457,24879
4.09195,24163
4.09932,24861
4.1067,29825
4.11407,38881
4.12145,47662
4.12883,52683
4.1362,51875
4.14358,48338
4.15095,42972
4.15833,39321
4.16572,34048
4.17308,30341
4.18047,26932
4.18783,26072
4.19522,25235
4.20258,25571
4.20997,25282
4.21735,24210
4.22472,23905
4.2321,23152
4.23947,23607
4.24685,24171
4.25423,25092
4.2616,25245
4.26898,24697
4.27635,23684
4.28373,22679
4.2911,22615
4.29848,22328
4.30587,22703
4.31323,21389
4.32062,20814
4.32798,27621
4.33537,96925
4.34275,157621
4.35012,147959
4.3575,124208
4.36487,108243
4.37225,96194
4.37962,87573
4.387,75630
4.39438,64396
4.40175,55370
4.40913,48099
4.4165,45729
4.42388,47916
4.43127,114216
4.43863,332112
4.44602,585756
4.45338,639679
4.46077,543203
4.46813,383447
4.47552,254903
4.4829,176098
4.49027,124407
4.49765,83576
4.50502,57731
4.5124,41757
4.51977,33526
4.52715,34800
4.53453,106274
4.5419,477992
4.54928,1178682
4.55665,1748273
4.56403,1906451
4.57142,1822399
4.57878,1369184
4.58617,866435
4.59353,510642
4.60092,277719
4.60828,155691
4.61567,95145
4.62305,59920
4.63042,46036
4.6378,39799
4.64517,35306
4.65255,30359
4.65993,26903
4.6673,25975
4.67468,25478
4.68205,25121
4.68943,24208
4.6968,28011
4.70418,32657
4.71157,39162
4.71893,42452
4.72632,40257
4.73368,34693
4.74107,30653
4.74845,31810
4.75582,33631
4.7632,32806
4.77057,30417
4.77795,27119
4.78532,24249
4.7927,24094
4.80008,26003
4.80745,33702
4.81483,106506
4.8222,372215
4.82958,705710
4.83697,774635
4.84433,545893
4.85172,320077
4.85908,176242
4.86647,101522
4.87383,63834
4.88122,44424
4.8886,48952
4.89597,76804
4.90335,85402
4.91072,71291
4.9181,48581
4.92548,34761
4.93285,28349
4.94023,26422
4.9476,24225
4.95498,22867
4.96235,21962
4.96973,20651
4.97712,18488
4.98448,17225
4.99187,17372
4.99923,17369
5.00662,20073
5.014,23027
5.02137,24186
5.02875,24262
5.03612,24458
5.0435,22998
5.05087,20066
5.05825,18459
5.06563,18319
5.073,20158
5.08038,22279
5.08775,24351
5.09513,24201
5.1025,21845
5.10988,19874
5.11727,18520
5.12463,16828
5.13202,15903
5.13938,16078
5.14677,14176
5.15415,15742
5.16152,20629
5.1689,43502
5.17627,64513
5.18365,64963
5.19102,75017
5.1984,91624
5.20578,85874
5.21315,58756
5.22053,38544
5.2279,27807
5.23528,25042
5.24267,25942
5.25003,28059
5.25742,24724
5.26478,22526
5.27217,20046
5.27953,20120
5.28692,22073
5.2943,30090
5.30167,40936
5.30905,39055
5.31642,32049
5.3238,28762
5.33118,25179
5.33855,21829
5.34593,18666
5.3533,19855
5.36068,23750
5.36805,25477
5.37543,23586
5.38282,23045
5.39018,22007
5.39757,20965
5.40493,19458
5.41232,19101
5.4197,19088
5.42707,18626
5.43445,18506
5.44182,18470
5.4492,19149
5.45657,19328
5.46395,20107
5.47133,20691
5.4787,30161
5.48608,43077
5.49345,41443
5.50083,32185
5.50822,25589
5.51558,24038
5.52297,25222
5.53033,29793
5.53772,48264
5.54508,138957
5.55247,349196
5.55985,404567
5.56722,246078
5.5746,103607
5.58197,45994
5.58935,32043
5.59673,34911
5.6041,46660
5.61148,71767
5.61885,88766
5.62623,213415
5.6336,794360
5.64098,1485576
5.64837,1327296
5.65573,657694
5.66312,322355
5.67048,483768
5.67787,840360
5.68523,731621
5.69262,319498
5.7,109634
5.70737,52370
5.71475,36786
5.72212,73758
5.7295,278831
5.73688,530685
5.74425,457968
5.75163,206995
5.759,77248
5.76638,43208
5.77375,35878
5.78113,28228
5.78852,24352
5.79588,21161
5.80327,22723
5.81063,28342
5.81802,34952
5.8254,37253
5.83277,64950
5.84015,228586
5.84752,427232
5.8549,360165
5.86227,169114
5.86965,70307
5.87703,42388
5.8844,32514
5.89178,27358
5.89915,23997
5.90653,20679
5.91392,20322
5.92128,19924
5.92867,21580
5.93603,23590
5.94342,22117
5.95078,21063
5.95817,20475
5.96555,22404
5.97292,26429
5.9803,27707
5.98767,27688
5.99505,33180
6.00243,37387
6.0098,49894
6.01718,278063
6.02455,1163159
6.03193,2127133
6.0393,1719149
6.04668,583580
6.05407,147436
6.06143,89150
6.06882,96657
6.07618,60737
6.08357,36611
6.09095,35013
6.09832,33615
6.1057,26905
6.11307,22526
6.12045,21300
6.12782,21411
6.1352,20975
6.14258,20125
6.14995,19587
6.15733,20297
6.1647,23572
6.17208,27790
6.17947,38870
6.18683,45070
6.19422,44004
6.20158,42995
6.20897,52680
6.21633,44277
6.22372,29133
6.2311,21338
6.23847,18460
6.24585,19837
6.25322,20827
6.2606,19452
6.26797,23770
6.27535,28482
6.28273,24315
6.2901,21578
6.29748,26420
6.30485,38990
6.31223,96568
6.31962,145745
6.32698,101847
6.33437,80902
6.34173,238684
6.34912,394293
6.35648,271699
6.36387,106996
6.37125,58769
6.37862,58762
6.386,45270
6.39337,29136
6.40075,31471
6.40813,41608
6.4155,36653
6.42288,27219
6.43025,37490
6.43763,60731
6.445,55040
6.45238,46281
6.45977,66168
6.46713,83526
6.47452,67399
6.48188,50102
6.48927,65615
6.49665,72052
6.50402,107726
6.5114,197489
6.51877,196310
6.52615,104172
6.53352,43957
6.5409,25659
6.54828,22612
6.55565,22469
6.56303,35581
6.5704,50180
6.57778,39744
6.58517,30057
6.59253,25742
6.59992,21528
6.60728,24477
6.61467,45447
6.62203,117174
6.62942,173188
6.6368,103308
6.64417,43546
6.65155,63986
6.65892,211164
6.6663,397995
6.67368,279085
6.68105,125461
6.68843,75474
6.6958,56183
6.70318,61921
6.71055,91992
6.71793,228319
6.72532,459935
6.73268,494064
6.74007,314401
6.74743,96832
6.75482,68636
6.7622,68257
6.76957,45675
6.77695,66357
6.78432,93659
6.7917,67028
6.79907,35228
6.80645,27802
6.81383,24707
6.8212,38423
6.82858,80583
6.83595,106301
6.84333,77923
6.8507,59497
6.85808,61102
6.86547,35499
6.87283,27165
6.88022,24742
6.88758,21838
6.89497,18463
6.90235,22385
6.90972,37301
6.9171,55080
6.92447,61804
6.93185,113343
6.93922,244874
6.9466,228070
6.95398,95508
6.96135,71444
6.96873,179186
6.9761,212715
6.98348,102985
6.99087,38755
6.99823,29773
7.00562,29735
7.01298,35152
7.02037,57838
7.02773,107747
7.03512,289110
7.0425,402514
7.04987,222163
7.05725,59649
7.06462,41881
7.072,83091
7.07938,94463
7.08675,55591
7.09413,42361
7.1015,43676
7.10888,34523
7.11625,26726
7.12363,33327
7.13102,30010
7.13838,24179
7.14577,25730
7.15313,30909
7.16052,64967
7.1679,104623
7.17527,78479
7.18265,39407
7.19002,28054
7.1974,29240
7.20477,50940
7.21215,80858
7.21953,68545
7.2269,46679
7.23428,37294
7.24165,28601
7.24903,50573
7.25642,98607
7.26378,94142
7.27117,48901
7.27853,28992
7.28592,29051
7.29328,28749
7.30067,31819
7.30805,32544
7.31542,32080
7.3228,31933
7.33017,31526
7.33755,29007
7.34493,30393
7.3523,26283
7.35968,27831
7.36705,29839
7.37443,33695
7.3818,89721
7.38918,173495
7.39657,133401
7.40393,59369
7.41132,37936
7.41868,76880
7.42607,190422
7.43345,182747
7.44082,83507
7.4482,44426
7.45557,36974
7.46295,29817
7.47032,29536
7.4777,30227
7.48508,34153
7.49245,32036
7.49983,35123
7.5072,29075
7.51458,24656
7.52195,27569
7.52933,31070
7.53672,29187
7.54408,24136
7.55147,20634
7.55883,20831
7.56622,35385
7.5736,61420
7.58097,54437
7.58835,32915
7.59572,28528
7.6031,32280
7.61047,50128
7.61785,58580
7.62523,37802
7.6326,23570
7.63998,31465
7.64735,79584
7.65473,172227
7.66212,129708
7.66948,54773
7.67687,33226
7.68423,24370
7.69162,25960
7.69898,34176
7.70637,33027
7.71375,27561
7.72112,23500
7.7285,25440
7.73587,34642
7.74325,82917
7.75063,141143
7.758,146954
7.76538,109727
7.77275,81093
7.78013,51544
7.7875,51271
7.79488,37487
7.80227,40061
7.80963,43438
7.81702,54733
7.82438,89341
7.83177,102553
7.83915,80195
7.84652,42623
7.8539,24159
7.86127,18389
7.86865,19449
7.87602,25574
7.8834,34051
7.89078,37799
7.89815,53540
7.90553,62497
7.9129,36097
7.92028,19416
7.92767,15025
7.93503,14458
7.94242,15925
7.94978,15563
7.95717,18481
7.96453,30059
7.97192,32255
7.9793,42243
7.98667,43760
7.99405,22786
8.00142,15550
8.0088,13568
8.01618,12695
8.02355,13314
8.03093,14653
8.0383,15665
8.04568,14772
8.05305,15576
8.06043,13437
8.06782,13507
8.07518,14682
8.08257,13184
8.08993,15109
8.09732,25777
8.10468,37498
8.11207,43322
8.11945,35432
8.12682,37495
8.1342,54731
8.14157,62938
8.14895,61438
8.15633,76442
8.1637,116719
8.17108,93466
8.17845,42936
8.18583,29531
8.1932,64586
8.20058,113615
8.20797,80583
8.21533,46921
8.22272,36428
8.23008,39408
8.23747,33100
8.24485,23023
8.25222,27588
8.2596,35253
8.26697,29502
8.27435,22058
8.28172,19927
8.2891,19473
8.29648,21225
8.30385,20752
8.31123,25673
8.3186,46183
8.32598,65114
8.33337,47698
8.34073,27220
8.34812,18795
8.35548,16555
8.36287,19821
8.37023,22809
8.37762,21548
8.385,18920
8.39237,18866
8.39975,22299
8.40712,26154
8.4145,27251
8.42188,25394
8.42925,24121
8.43663,24762
8.444,21870
8.45138,21747
8.45875,26528
8.46613,31201
8.47352,28897
8.48088,23762
8.48827,21876
8.49563,21335
8.50302,19060
8.5104,15545
8.51777,15657
8.52515,16057
8.53252,18018
8.5399,20054
8.54727,39287
8.55465,176505
8.56203,374665
8.5694,274949
8.57678,137935
8.58415,90346
8.59153,66861
8.59892,54611
8.60628,37957
8.61367,26156
8.62103,20680
8.62842,17942
8.63578,18044
8.64317,20335
8.65055,24444
8.65792,24228
8.6653,21191
8.67267,19202
8.68005,19770
8.68742,21931
8.6948,26357
8.70218,27488
8.70955,20989
8.71693,18067
8.7243,18733
8.73168,17400
8.73907,21477
8.74643,35764
8.75382,50253
8.76118,47812
8.76857,44094
8.77593,35461
8.78332,26032
8.7907,20635
8.79807,19601
8.80545,20457
8.81282,22084
8.8202,25700
8.82758,29462
8.83495,26572
8.84233,22449
8.8497,18246
8.85708,17973
8.86445,17900
8.87183,20553
8.87922,23029
8.88658,25816
8.89397,41227
8.90133,33589
8.90872,22245
8.9161,15403
8.92347,15759
8.93085,25385
8.93822,37650
8.9456,24172
8.95297,16597
8.96035,13644
8.96773,12291
8.9751,12278
8.98248,14031
8.98985,12508
8.99723,11724
9.00462,12568
9.01198,13582
9.01937,14627
9.02673,14598
9.03412,15062
9.04148,20745
9.04887,22493
9.05625,19964
9.06362,17025
9.071,18116
9.07837,18855
9.08575,21143
9.09313,21712
9.1005,20470
9.10788,19919
9.11525,19216
9.12263,22432
9.13,25964
9.13738,25492
9.14477,21791
9.15213,18239
9.15952,25948
9.16688,39476
9.17427,34034
9.18165,21011
9.18902,15212
9.1964,13123
9.20377,12226
9.21115,11881
9.21852,12075
9.2259,14145
9.23328,18235
9.24065,21029
9.24803,28380
9.2554,38135
9.26278,34748
9.27015,22022
9.27753,17170
9.28492,14085
9.29228,11801
9.29967,13939
9.30703,14297
9.31442,15285
9.3218,18118
9.32917,27879
9.33655,29214
9.34392,19281
9.3513,15104
9.35867,19943
9.36605,43961
9.37343,65838
9.3808,37633
9.38818,21308
9.39555,16174
9.40293,15802
9.41032,19173
9.41768,17543
9.42507,14082
9.43243,14251
9.43982,13260
9.44718,13337
9.45457,13580
9.46195,21010
9.46932,23640
9.4767,22489
9.48407,23754
9.49145,29460
9.49883,30658
9.5062,22425
9.51358,17009
9.52095,12697
9.52833,14388
9.5357,27804
9.54308,44879
9.55047,36553
9.55783,20795
9.56522,16171
9.57258,13690
9.57997,11993
9.58735,14158
9.59472,23134
9.6021,20451
9.60947,16620
9.61685,13966
9.62422,13602
9.6316,14564
9.63898,13662
9.64635,14241
9.65373,16227
9.6611,13930
9.66848,12949
9.67587,14051
9.68323,21942
9.69062,29059
9.69798,31451
9.70537,19147
9.71273,13579
9.72012,16061
9.7275,17073
9.73487,16177
9.74225,18222
9.74962,21433
9.757,19637
9.76438,17036
9.77175,18387
9.77913,27011
9.7865,34124
9.79388,25510
9.80125,18602
9.80863,18261
9.81602,16479
9.82338,15701
9.83077,16786
9.83813,16607
9.84552,15705
9.85288,17819
9.86027,24610
9.86765,23537
9.87502,18587
9.8824,16957
9.88977,13268
9.89715,11370
9.90453,10317
9.9119,9847
9.91928,9972
9.92665,12149
9.93403,12668
9.9414,11280
9.94878,10685
9.95617,9794
9.96353,9805
9.97092,10416
9.97828,10719
9.98567,11778
9.99305,10803
10.0004,11364
10.0078,12778
10.0152,15343
10.0226,12209
10.0299,10641
10.0373,10661
10.0447,8762
10.0521,8065
10.0594,8274
10.0668,12183
10.0742,22599
10.0816,32595
10.0889,19014
10.0963,12111
10.1037,10725
10.1111,10312
10.1184,8681
10.1258,8782
10.1332,8526
10.1406,10452
10.148,10020
10.1553,10508
10.1627,13631
10.1701,12123
10.1775,11357
10.1848,13115
10.1922,15117
10.1996,15100
10.207,14655
10.2143,13309
10.2217,11950
10.2291,10894
10.2365,10597
10.2438,9238
10.2512,9685
10.2586,10909
10.266,12155
10.2734,11310
10.2807,10456
10.2881,10022
10.2955,13554
10.3029,15201
10.3102,12570
10.3176,9997
10.325,8726
10.3324,11378
10.3397,16175
10.3471,20658
10.3545,14364
10.3619,10502
10.3692,11351
10.3766,10780
10.384,13243
10.3914,14107
10.3988,10025
10.4061,8386
10.4135,8984
10.4209,9461
10.4283,9961
10.4356,12254
10.443,11837
10.4504,11873
10.4578,11801
10.4651,12448
10.4725,11522
10.4799,11463
10.4873,12308
10.4946,14940
10.502,17808
10.5094,17341
10.5168,23694
10.5241,37416
10.5315,32722
10.5389,22008
10.5463,21140
10.5537,18120
10.561,16023
10.5684,15346
10.5758,14906
10.5832,12780
10.5905,10348
10.5979,10086
10.6053,11276
10.6127,13604
10.62,15526
10.6274,13300
10.6348,10505
10.6422,10783
10.6495,9418
10.6569,9298
10.6643,9232
10.6717,9616
10.6791,11770
10.6864,13918
10.6938,11748
10.7012,10878
10.7086,11641
10.7159,18862
10.7233,17351
10.7307,14006
10.7381,12832
10.7454,11822
10.7528,10759
10.7602,11149
10.7676,10765
10.7749,11854
10.7823,15622
10.7897,17600
10.7971,13658
10.8045,11895
10.8118,11116
10.8192,10590
10.8266,9864
10.834,11589
10.8413,22085
10.8487,26871
10.8561,18180
10.8635,9492
10.8708,9613
10.8782,8863
10.8856,8427
10.893,8526
10.9003,9784
10.9077,8348
10.9151,8361
10.9225,10984
10.9299,15015
10.9372,17773
10.9446,13834
10.952,10961
10.9594,10335
10.9667,10491
10.9741,11403
10.9815,11689
10.9889,9651
10.9962,9781
11.0036,11839
11.011,14177
11.0184,11921
11.0257,9731
11.0331,8692
11.0405,8911
11.0479,9635
11.0552,7967
11.0626,7843
11.07,8374
11.0774,9078
11.0848,9794
11.0921,8553
11.0995,7873
11.1069,8895
11.1143,10991
11.1216,11576
11.129,11821
11.1364,11031
11.1438,9845
11.1511,8614
11.1585,7866
11.1659,8304
11.1733,8031
11.1806,7867
11.188,9979
11.1954,9718
11.2028,9838
11.2102,12253
11.2175,17516
11.2249,25589
11.2323,18288
11.2397,11358
11.247,10028
11.2544,10079
11.2618,9904
11.2692,8420
11.2765,8056
11.2839,8195
11.2913,7944
11.2987,8724
11.306,9697
11.3134,11207
11.3208,10771
11.3282,9869
11.3356,9257
11.3429,8005
11.3503,8025
11.3577,8031
11.3651,8085
11.3724,8362
11.3798,8141
11.3872,9301
11.3946,10224
11.4019,9436
11.4093,8159
11.4167,7861
11.4241,7513
11.4314,11410
11.4388,11161
11.4462,10905
11.4536,11344
11.4609,11898
11.4683,11738
11.4757,12108
11.4831,12602
11.4905,12046
11.4978,11733
11.5052,11109
11.5126,11028
11.52,11328
11.5273,10822
11.5347,10313
11.5421,10155
11.5495,10818
11.5568,11846
11.5642,11794
11.5716,11386
11.579,11051
11.5863,10989
11.5937,11589
11.6011,10723
11.6085,10529
11.6159,10194
11.6232,10372
11.6306,10326
11.638,10446
11.6454,10569
11.6527,10023
11.6601,10151
11.6675,11338
11.6749,15051
11.6822,15955
11.6896,15159
11.697,12934
11.7044,11296
11.7117,10376
11.7191,10110
11.7265,10397
11.7339,11520
11.7413,15159
11.7486,20570
11.756,16605
11.7634,11893
11.7708,10754
11.7781,10186
11.7855,10510
11.7929,10356
11.8003,10801
11.8076,10265
11.815,9780
11.8224,9673
11.8298,9631
11.8371,9653
11.8445,9618
11.8519,9417
11.8593,10243
11.8666,9627
11.874,9843
11.8814,9952
11.8888,9243
11.8962,9507
11.9035,9130
11.9109,9901
11.9183,9828
11.9257,9679
11.933,10035
11.9404,11407
11.9478,10904
11.9552,10244
11.9625,10253
11.9699,10009
11.9773,9970
11.9847,9437
11.992,8846
11.9994,9525
12.0068,9522
12.0142,9003
12.0216,9036
12.0289,9062
12.0363,9342
12.0437,8527
12.0511,9195
12.0584,8940
12.0658,9137
12.0732,8987
12.0806,9002
12.0879,9176
12.0953,9244
12.1027,10263
12.1101,10164
12.1174,10545
12.1248,9916
12.1322,8950
12.1396,8918
12.147,9570
12.1543,9407
12.1617,9442
12.1691,9381
12.1765,8861
12.1838,9051
12.1912,9577
12.1986,8880
12.206,8846
12.2133,8979
12.2207,9052
12.2281,9712
12.2355,9793
12.2428,9550
12.2502,9186
12.2576,9779
12.265,9550
12.2723,9401
12.2797,9665
12.2871,9835
12.2945,9944
12.3019,9654
12.3092,9114
12.3166,9269
12.324,9243
12.3314,9414
12.3387,10769
12.3461,11997
12.3535,12600
12.3609,12025
12.3682,11778
12.3756,11931
12.383,10342
12.3904,9688
12.3977,10037
12.4051,9744
12.4125,10353
12.4199,10624
12.4273,11595
12.4346,11603
12.442,10114
12.4494,9511
12.4568,9142
12.4641,8770
12.4715,9150
12.4789,9016
12.4863,9315
12.4936,8653
12.501,9114
12.5084,9329
12.5158,10361
12.5231,11028
12.5305,11007
12.5379,10436
12.5453,10198
12.5527,9494
12.56,9998
12.5674,10572
12.5748,12150
12.5822,11329
12.5895,10046
12.5969,9524
12.6043,9403
12.6117,8396
12.619,8851
12.6264,8941
12.6338,9349
12.6412,9308
12.6485,8793
12.6559,8675
12.6633,8844
12.6707,8635
12.6781,8594
12.6854,8880
12.6928,9220
12.7002,8673
12.7076,10110
12.7149,14762
12.7223,20343
12.7297,16942
12.7371,10353
12.7444,8282
12.7518,8171
12.7592,8556
12.7666,9514
12.7739,11155
12.7813,10762
12.7887,8992
12.7961,8326
12.8034,8444
12.8108,9301
12.8182,10101
12.8256,9513
12.833,8433
12.8403,8731
12.8477,8814
12.8551,8529
12.8625,8352
12.8698,8518
12.8772,7767
12.8846,8004
12.892,7861
12.8993,7784
12.9067,7205
12.9141,8018
12.9215,8265
12.9288,7848
12.9362,8050
12.9436,7537
12.951,7726
12.9584,8138
12.9657,7775
12.9731,7550
12.9805,7707
12.9879,7403
12.9952,7619
13.0026,7416
13.01,7144
13.0174,7138
13.0247,7486
13.0321,7704
13.0395,7471
13.0469,7409
13.0542,7018
13.0616,7226
13.069,7993
13.0764,8453
13.0838,8098
13.0911,7707
13.0985,7100
13.1059,6847
13.1133,7220
13.1206,7086
13.128,7017
13.1354,6574
13.1428,6818
13.1501,6191
13.1575,6709
13.1649,6684
13.1723,6333
13.1796,6406
13.187,6258
13.1944,6192
13.2018,6309
13.2091,6566
13.2165,6370
13.2239,5829
13.2313,5993
13.2387,6535
13.246,6421
13.2534,6489
13.2608,6646
13.2682,6372
13.2755,6176
13.2829,6384
13.2903,6200
13.2977,6393
13.305,6070
13.3124,6170
13.3198,5950
13.3272,5792
13.3345,6440
13.3419,6220
13.3493,6454
13.3567,5945
13.3641,6083
13.3714,6654
13.3788,6773
13.3862,6460
13.3936,7513
13.4009,8574
13.4083,8306
13.4157,7064
13.4231,6565
13.4304,6322
13.4378,6286
13.4452,6069
13.4526,7179
13.4599,6992
13.4673,6892
13.4747,6738
13.4821,7322
13.4895,7509
13.4968,6712
13.5042,6690
13.5116,6128
13.519,6674
13.5263,6749
13.5337,6819
13.5411,6247
13.5485,6503
13.5558,6678
13.5632,6408
13.5706,6436
13.578,7196
13.5853,6910
13.5927,6526
13.6001,6393
13.6075,6337
13.6148,6309
13.6222,6178
13.6296,6419
13.637,6487
13.6444,6049
13.6517,6071
13.6591,7969
13.6665,8282
13.6739,8431
13.6812,8542
13.6886,8327
13.696,8115
13.7034,8001
13.7107,7411
13.7181,7319
13.7255,7025
13.7329,6920
13.7402,6795
13.7476,6418
13.755,6265
13.7624,6276
13.7698,5817
13.7771,5859
13.7845,5961
13.7919,5717
13.7993,5822
13.8066,5961
13.814,6339
13.8214,5916
13.8288,6630
13.8361,7709
13.8435,6566
13.8509,5853
13.8583,5689
13.8656,5916
13.873,6230
13.8804,6203
13.8878,5567
13.8952,6910
13.9025,6202
13.9099,6218
13.9173,6324
13.9247,5890
13.932,6182
13.9394,6935
13.9468,6465
13.9542,6326
13.9615,6519
13.9689,6702
13.9763,5811
13.9837,5744
13.991,5821
13.9984,6066
14.0058,6447
14.0132,6484
14.0205,6100
14.0279,6333
14.0353,6329
14.0427,6414
14.0501,5734
14.0574,6791
14.0648,6109
14.0722,5649
14.0796,7415
14.0869,8557
14.0943,8516
14.1017,7500
14.1091,6405
14.1164,5992
14.1238,6267
14.1312,5839
14.1386,5912
14.1459,6161
14.1533,7914
14.1607,8325
14.1681,8260
14.1755,8234
14.1828,8236
14.1902,8202
14.1976,8275
14.205,7974
14.2123,7970
14.2197,7827
14.2271,8269
14.2345,8285
14.2418,8310
14.2492,7875
14.2566,8092
14.264,8121
14.2713,7849
14.2787,7845
14.2861,8090
14.2935,8097
14.3009,7898
14.3082,7564
14.3156,7778
14.323,8554
14.3304,7930
14.3377,7948
14.3451,8387
14.3525,8270
14.3599,7662
14.3672,7602
14.3746,7475
14.382,7624
14.3894,7661
14.3967,7973
14.4041,7978
14.4115,7356
14.4189,7388
14.4263,6950
14.4336,6842
14.441,7602
14.4484,7181
14.4558,7754
14.4631,7817
14.4705,6841
14.4779,7203
14.4853,6794
14.4926,6295
14.5,6019
14.5074,6284
14.5148,5828
14.5221,5724
14.5295,6023
14.5369,6020
14.5443,6355
14.5516,6261
14.559,6132
14.5664,6566
14.5738,6044
14.5812,7274
14.5885,6652
14.5959,6520
14.6033,6705
14.6107,6067
14.618,6276
14.6254,6055
14.6328,6343
14.6402,6605
14.6475,6424
14.6549,7553
14.6623,6713
14.6697,6680
14.677,6769
14.6844,6268
14.6918,6308
14.6992,5958
14.7066,6126
14.7139,6260
14.7213,6223
14.7287,7941
14.7361,6741
14.7434,5980
14.7508,6791
14.7582,6014
14.7656,6013
14.7729,6360
14.7803,6626
14.7877,6212
14.7951,6299
14.8024,6029
14.8098,6132
14.8172,5917
14.8246,5761
14.832,6130
14.8393,5683
14.8467,6121
14.8541,5940
14.8615,7675
14.8688,8714
14.8762,8416
14.8836,8572
14.891,8379
14.8983,7545
14.9057,6592
14.9131,6629
14.9205,6365
14.9278,6813
14.9352,7361
14.9426,7207
14.95,8163
14.9573,8096
14.9647,8331
14.9721,8256
14.9795,7089
14.9869,6952
14.9942,6496
15.0016,6903
15.009,7022
15.0164,7192
15.0237,7043
15.0311,7055
15.0385,6849
15.0459,6783
15.0532,7058
15.0606,7749
15.068,7917
15.0754,7706
15.0827,9548
15.0901,9686
15.0975,9234
15.1049,9247
15.1123,7904
15.1196,8167
15.127,7835
15.1344,9364
15.1418,11577
15.1491,11509
15.1565,11528
15.1639,12010
15.1713,11647
15.1786,12064
15.186,12669
15.1934,13589
15.2008,15086
15.2081,18412
15.2155,21528
15.2229,26322
15.2303,31920
15.2377,35678
15.245,37006
15.2524,35050
15.2598,30926
15.2672,26758
15.2745,20972
15.2819,17663
15.2893,16309
15.2967,15636
15.304,14763
15.3114,15082
15.3188,14062
15.3262,13390
15.3335,14457
15.3409,13822
15.3483,13477
15.3557,15493
15.363,16157
15.3704,15385
15.3778,13515
15.3852,12750
15.3926,11847
15.3999,10581
15.4073,10759
15.4147,10141
15.4221,9522
15.4294,9819
15.4368,9487
15.4442,9790
15.4516,9743
15.4589,9719
15.4663,9856
15.4737,9209
15.4811,9025
15.4884,9249
15.4958,8925
15.5032,8047
15.5106,7594
15.518,7400
15.5253,7355
15.5327,6856
15.5401,7405
15.5475,7163
15.5548,7145
15.5622,7202
15.5696,7398
15.577,11880
15.5843,15946
15.5917,15921
15.5991,12048
15.6065,11246
15.6138,11064
15.6212,11106
15.6286,9717
15.636,9350
15.6434,8752
15.6507,8291
15.6581,8467
15.6655,8234
15.6729,7740
15.6802,7368
15.6876,7577
15.695,9346
15.7024,9690
15.7097,8541
15.7171,8056
15.7245,7871
15.7319,7211
15.7392,7505
15.7466,7826
15.754,7405
15.7614,9528
15.7688,8996
15.7761,7664
15.7835,7501
15.7909,7897
15.7983,7531
15.8056,8466
15.813,7942
15.8204,7492
15.8278,7130
15.8351,9210
15.8425,10182
15.8499,10559
15.8573,10558
15.8646,9646
15.872,8897
15.8794,8562
15.8868,7571
15.8941,7738
15.9015,8298
15.9089,8309
15.9163,7755
15.9237,7900
15.931,8545
15.9384,8710
15.9458,7917
15.9532,8124
15.9605,7953
15.9679,8264
15.9753,9341
15.9827,8526
15.99,7896
15.9974,7793
16.0048,8255
16.0122,8365
16.0195,7841
16.0269,7893
16.0343,7816
16.0417,8983
16.0491,10068
16.0564,9814
16.0638,8788
16.0712,8815
16.0786,9147
16.0859,9724
16.0933,8686
16.1007,9215
16.108,8286
16.1154,8391
16.1228,8962
16.1302,8714
16.1376,8399
16.1449,8224
16.1523,8194
16.1597,7949
16.1671,8294
16.1745,7665
16.1818,7702
16.1892,7675
16.1966,10879
16.2039,10560
16.2113,10937
16.2187,10108
16.2261,10240
16.2335,8939
16.2408,8890
16.2482,8534
16.2556,8517
16.263,10040
16.2703,9376
16.2777,8625
16.2851,8776
16.2925,9457
16.2998,10567
16.3072,9975
16.3146,10662
16.322,9562
16.3294,10184
16.3367,12784
16.3441,12245
16.3515,12069
16.3589,12309
16.3662,12281
16.3736,13324
16.381,13319
16.3883,11502
16.3957,10915
16.4031,10052
16.4105,9379
16.4179,10323
16.4252,9550
16.4326,9449
16.44,9640
16.4474,9892
16.4548,9515
16.4621,11392
16.4695,12395
16.4769,12167
16.4842,9882
16.4916,9117
16.499,9288
16.5064,9564
16.5138,10249
16.5211,10249
16.5285,9531
16.5359,8906
16.5433,9050
16.5506,9243
16.558,12204
16.5654,13167
16.5728,12887
16.5802,12724
16.5875,12956
16.5949,13453
16.6023,13042
16.6096,12845
16.617,12645
16.6244,12575
16.6318,13117
16.6392,12573
16.6465,12724
16.6539,13525
16.6613,14195
16.6687,13993
16.676,13515
16.6834,14486
16.6908,14426
16.6982,13932
16.7055,13620
16.7129,12814
16.7203,12414
16.7277,11728
16.7351,11679
16.7424,12013
16.7498,11866
16.7572,11575
16.7646,11306
16.7719,11866
16.7793,11581
16.7867,11651
16.794,13998
16.8014,15059
16.8088,14917
16.8162,14327
16.8236,13877
16.8309,12461
16.8383,12277
16.8457,12484
16.8531,12009
16.8605,12278
16.8678,11885
16.8752,11454
16.8826,11188
16.8899,11303
16.8973,11260
16.9047,10923
16.9121,11347
16.9195,10898
16.9268,10877
16.9342,11057
16.9416,10643
16.949,10830
16.9563,10511
16.9637,10233
16.9711,10649
16.9785,10693
16.9858,10656
16.9932,10737
17.0006,10355
17.008,9800
17.0154,9951
17.0227,10088
17.0301,10139
17.0375,9434
17.0449,9102
17.0522,8893
17.0596,8539
17.067,8841
17.0744,8757
17.0817,8153
17.0891,8408
17.0965,8621
17.1039,8632
17.1112,8528
17.1186,9317
17.126,8569
17.1334,9300
17.1408,8376
17.1481,8942
17.1555,9613
17.1629,9022
17.1702,9326
17.1776,9304
17.185,9086
17.1924,10523
17.1998,9198
17.2071,8395
17.2145,8350
17.2219,8632
17.2293,8849
17.2366,8509
17.244,8304
17.2514,8739
17.2588,8578
17.2662,8726
17.2735,8454
17.2809,8489
17.2883,8507
17.2956,11217
17.303,11305
17.3104,10536
17.3178,10699
17.3252,9109
17.3325,8991
17.3399,9570
17.3473,10668
17.3547,11328
17.362,11323
17.3694,11945
17.3768,13270
17.3842,13449
17.3915,14513
17.3989,15922
17.4063,18158
17.4137,18326
17.4211,19834
17.4284,21912
17.4358,25363
17.4432,29030
17.4506,33820
17.4579,44291
17.4653,46163
17.4727,45261
17.4801,43894
17.4874,40179
