D:\Data GC-MS-77B\2021\9 SEPTEMBER\12-09-21\46829-21 1 SKDM.D 12 Sep 21  10:09 am
Start of data points
1.29373,6356
1.30048,6382
1.30722,6510
1.31397,18187
1.3207,757405
1.32745,4914387
1.33418,4435782
1.34093,4636168
1.34768,4702663
1.35442,4802264
1.36117,4932456
1.3679,4999450
1.37465,5000948
1.38138,5167677
1.38813,5449822
1.39488,5588063
1.40162,5241563
1.40837,4063926
1.4151,2767966
1.42185,2037308
1.42858,1668001
1.43533,1396405
1.44208,1147896
1.44882,911457
1.45557,696866
1.4623,520122
1.46905,381319
1.47578,276335
1.48253,198061
1.48927,143872
1.51013,165330
1.51752,122903
1.52488,93588
1.53227,72977
1.53965,60084
1.54702,49695
1.5544,44356
1.56177,40660
1.56915,36554
1.57652,34367
1.5839,31401
1.59128,30742
1.59865,28927
1.60603,29639
1.6134,33473
1.62078,38513
1.62817,39169
1.63553,38095
1.64292,35936
1.65028,32985
1.65767,30048
1.66503,28140
1.67242,27094
1.6798,26593
1.68717,26579
1.69455,25354
1.70192,25468
1.7093,25607
1.71667,25652
1.72405,28420
1.73143,31404
1.7388,30507
1.74618,28952
1.75355,28139
1.76093,27457
1.76832,26622
1.77568,26337
1.78307,26025
1.79043,26312
1.79782,25350
1.80518,25638
1.81257,24661
1.81995,24553
1.82732,24094
1.8347,23814
1.84207,24590
1.84945,26394
1.85683,26743
1.8642,30645
1.87158,30733
1.87895,31198
1.88633,33591
1.8937,34082
1.90108,32648
1.90847,30599
1.91583,28419
1.92322,26293
1.93058,24799
1.93797,25161
1.94535,24768
1.95272,24435
1.9601,23306
1.96747,23112
1.97485,22762
1.98222,21970
1.9896,22243
1.99698,22776
2.00435,22512
2.01173,22377
2.0191,22609
2.02648,23549
2.03387,24458
2.04123,24533
2.04862,24140
2.05598,24187
2.06337,23977
2.07073,23096
2.07812,22782
2.0855,22879
2.09287,22524
2.10025,22682
2.10762,22642
2.115,21457
2.12238,21935
2.12975,21396
2.13713,21629
2.1445,22169
2.15188,21384
2.15925,22009
2.16663,22122
2.17402,21659
2.18138,22021
2.18877,22560
2.19613,21669
2.20352,21729
2.2109,21981
2.21827,21701
2.22565,23166
2.23302,23495
2.2404,24534
2.24777,23327
2.25515,22647
2.26253,21419
2.2699,21169
2.27728,20341
2.28465,20405
2.29203,19935
2.2994,20060
2.30678,19746
2.31417,20726
2.32153,21723
2.32892,21391
2.33628,20196
2.34367,20165
2.35105,20897
2.35842,20327
2.3658,20409
2.37317,20662
2.38055,20315
2.38792,19838
2.3953,20808
2.40268,20549
2.41005,20868
2.41743,21499
2.4248,21988
2.43218,21060
2.43957,21406
2.44693,20894
2.45432,20674
2.46168,20391
2.46907,21062
2.47643,19728
2.48382,21592
2.4912,23778
2.49857,26087
2.50595,28226
2.51332,27943
2.5207,27438
2.52808,26764
2.53545,24347
2.54283,22903
2.5502,21990
2.55758,20973
2.56495,20859
2.57233,20590
2.57972,22002
2.58708,24698
2.59447,24973
2.60183,23740
2.60922,22236
2.6166,20857
2.62397,20090
2.63135,19616
2.63872,19600
2.6461,20002
2.65347,19471
2.66085,19578
2.66823,20931
2.6756,20604
2.68298,21452
2.69035,21227
2.69773,21702
2.70512,21171
2.71248,20922
2.71987,21149
2.72723,22098
2.73462,23393
2.74198,23888
2.74937,22417
2.75675,21113
2.76412,21266
2.7715,20940
2.77887,21205
2.78625,20750
2.79363,21399
2.801,22662
2.80838,24605
2.81575,25094
2.82313,23113
2.8305,21512
2.83788,21124
2.84527,20458
2.85263,21597
2.86002,21745
2.86738,21776
2.87477,20688
2.88215,19656
2.88952,20100
2.8969,19717
2.90427,19647
2.91165,19835
2.91902,20061
2.9264,20365
2.93378,20413
2.94115,20282
2.94853,20000
2.9559,20117
2.96328,20835
2.97065,20221
2.97803,20305
2.98542,19219
2.99278,19144
3.00017,19594
3.00753,18993
3.01492,19705
3.0223,19665
3.02967,20051
3.03705,19884
3.04442,20424
3.0518,21939
3.05917,24496
3.06655,24463
3.07393,23214
3.0813,22282
3.08868,20100
3.09605,19128
3.10343,19511
3.11082,19368
3.11818,20430
3.12557,20482
3.13293,20976
3.14032,20617
3.14768,21266
3.15507,20684
3.16245,20530
3.16982,20149
3.1772,20406
3.18457,19778
3.19195,19630
3.19933,18870
3.2067,19307
3.21408,18671
3.22145,19413
3.22883,20984
3.2362,21238
3.24358,20475
3.25097,19617
3.25833,19585
3.26572,19857
3.27308,19269
3.28047,18593
3.28785,19509
3.29522,18851
3.3026,20178
3.30997,20156
3.31735,18887
3.32472,18803
3.3321,19145
3.33948,20061
3.34685,18950
3.35423,19647
3.3616,19328
3.36898,19070
3.37637,19624
3.38373,19522
3.39112,20317
3.39848,22643
3.40587,23333
3.41323,22975
3.42062,21616
3.428,21478
3.43537,20041
3.44275,21690
3.45012,20823
3.4575,20486
3.46488,19776
3.47225,19675
3.47963,19666
3.487,21197
3.49438,22900
3.50175,25085
3.50913,24505
3.51652,24882
3.52388,25341
3.53127,41538
3.53863,92999
3.54602,127342
3.55338,108146
3.56077,62870
3.56815,36070
3.57552,24898
3.5829,25613
3.59027,28729
3.59765,27994
3.60503,25525
3.6124,23340
3.61978,21276
3.62715,20581
3.63453,19315
3.6419,19251
3.64928,19854
3.65667,20900
3.66403,21888
3.67142,22846
3.67878,21682
3.68617,21599
3.69355,20381
3.70092,19490
3.7083,18872
3.71567,18973
3.72305,19391
3.73042,19315
3.7378,19021
3.74518,19147
3.75255,20085
3.75993,19609
3.7673,20553
3.77468,21087
3.78207,20911
3.78943,20633
3.79682,20952
3.80418,21524
3.81157,21111
3.81893,20739
3.82632,20275
3.8337,19694
3.84107,19104
3.84845,19381
3.85582,19444
3.8632,19325
3.87058,20562
3.87795,20134
3.88533,21680
3.8927,25785
3.90008,28363
3.90745,25444
3.91483,21979
3.92222,20998
3.92958,19938
3.93697,19562
3.94433,20286
3.95172,19058
3.9591,19429
3.96647,20761
3.97385,20793
3.98122,21851
3.9886,21420
3.99597,20170
4.00335,19473
4.01073,19860
4.0181,20140
4.02548,21034
4.03285,21610
4.04023,21313
4.04762,19765
4.05498,20294
4.06237,19979
4.06973,19417
4.07712,19650
4.08448,19562
4.09187,19461
4.09925,19922
4.10662,19869
4.114,19854
4.12137,19782
4.12875,19507
4.13612,20150
4.1435,23217
4.15088,32645
4.15825,43829
4.16563,43834
4.173,35677
4.18038,30150
4.18777,26118
4.19513,24198
4.20252,24109
4.20988,23449
4.21727,24463
4.22463,24050
4.23202,24685
4.2394,24598
4.24677,24266
4.25415,23031
4.26152,22519
4.2689,22630
4.27628,22503
4.28365,22917
4.29103,23142
4.2984,23261
4.30578,22842
4.31315,24728
4.32053,27642
4.32792,26675
4.33528,23603
4.34267,22946
4.35003,22502
4.35742,22519
4.3648,23341
4.37217,22443
4.37955,21203
4.38692,22198
4.3943,23395
4.40167,23499
4.40905,23105
4.41643,23191
4.4238,22995
4.43118,22820
4.43855,22092
4.44593,21907
4.45332,20979
4.46068,22113
4.46807,22252
4.47543,21816
4.48282,21410
4.49018,21658
4.49757,21731
4.50495,21611
4.51232,21695
4.5197,21729
4.52707,21648
4.53445,22246
4.54183,22869
4.5492,22276
4.55658,21782
4.56395,21376
4.57133,22758
4.5787,23269
4.58608,22792
4.59347,22652
4.60083,21682
4.60822,21048
4.61558,22169
4.62297,22437
4.63035,22117
4.63772,21582
4.6451,25773
4.65247,59393
4.65985,155449
4.66722,192142
4.6746,111319
4.68198,45270
4.68935,25981
4.69673,22485
4.7041,21897
4.71148,21924
4.71885,20918
4.72623,21876
4.73362,26381
4.74098,87986
4.74837,386732
4.75573,768962
4.76312,687350
4.7705,301583
4.77787,91100
4.78525,36754
4.79262,27168
4.8,24654
4.80737,23605
4.81475,23168
4.82213,23326
4.8295,23456
4.83688,24335
4.84425,23331
4.85163,22979
4.85902,21947
4.86638,22312
4.87377,22098
4.88113,22703
4.88852,21586
4.89588,20693
4.90327,20897
4.91065,22176
4.91802,22240
4.9254,21763
4.93277,22547
4.94015,23994
4.94753,23831
4.9549,22495
4.96228,22578
4.96965,23803
4.97703,23607
4.9844,22667
4.99178,22503
4.99917,22481
5.00653,22529
5.01392,21608
5.02128,21752
5.02867,31939
5.03605,120057
5.04342,312965
5.0508,334110
5.05817,150992
5.06555,48692
5.07292,26451
5.0803,26094
5.08768,31777
5.09505,29655
5.10243,24147
5.1098,20882
5.11718,21856
5.12457,21640
5.13193,22107
5.13932,21321
5.14668,20713
5.15407,21111
5.16143,20864
5.16882,21704
5.1762,21831
5.18357,21744
5.19095,22537
5.19832,22720
5.2057,23950
5.21308,23039
5.22045,21728
5.22783,21457
5.2352,22463
5.24258,22689
5.24995,22049
5.25733,21289
5.26472,20622
5.27208,20617
5.27947,20997
5.28683,21667
5.29422,22535
5.30158,22937
5.30897,24079
5.31635,21103
5.32372,20719
5.3311,21686
5.33847,20899
5.34585,20692
5.35323,21171
5.3606,21589
5.36798,23433
5.37535,24076
5.38273,25819
5.3901,25875
5.39748,24602
5.40487,24881
5.41223,38372
5.41962,69669
5.42698,68470
5.43437,40295
5.44175,27704
5.44912,24234
5.4565,23087
5.46387,23038
5.47125,22421
5.47862,23828
5.486,26660
5.49338,30556
5.50075,27507
5.50813,23222
5.5155,23405
5.52288,23282
5.53027,22069
5.53763,21865
5.54502,20773
5.55238,21958
5.55977,23832
5.56713,24850
5.57452,23749
5.5819,22127
5.58927,22576
5.59665,22457
5.60402,21888
5.6114,21272
5.61878,22303
5.62615,21613
5.63353,21636
5.6409,22080
5.64828,22340
5.65565,22226
5.66303,22221
5.67042,22516
5.67778,21424
5.68517,21901
5.69253,22849
5.69992,22807
5.7073,22973
5.71467,21544
5.72205,21256
5.72942,21977
5.7368,24805
5.74417,27995
5.75155,35229
5.75893,90637
5.7663,179739
5.77368,142500
5.78105,55519
5.78843,28122
5.79582,27801
5.80318,27195
5.81057,29476
5.81793,33153
5.82532,30317
5.83268,26738
5.84007,54490
5.84745,256135
5.85482,687595
5.8622,677798
5.86957,404176
5.87695,373990
5.88432,217806
5.8917,67143
5.89908,33382
5.90645,27836
5.91383,28835
5.9212,67463
5.92858,238289
5.93597,424119
5.94333,300427
5.95072,85772
5.95808,30819
5.96547,25385
5.97283,25683
5.98022,26250
5.9876,26119
5.99497,25617
6.00235,24692
6.00972,24075
6.0171,24381
6.02448,23859
6.03185,22430
6.03923,21744
6.0466,22173
6.05398,23711
6.06135,48525
6.06873,187023
6.07612,359924
6.08348,257181
6.09087,82111
6.09823,33992
6.10562,27473
6.113,24607
6.12037,24402
6.12775,24764
6.13512,25166
6.1425,24765
6.14987,23776
6.15725,22811
6.16463,24293
6.172,30865
6.17938,33013
6.18675,36342
6.19413,50270
6.20152,49921
6.20888,41342
6.21627,114943
6.22363,662556
6.23102,1528353
6.23838,1229814
6.24577,364252
6.25315,84393
6.26052,45251
6.2679,32806
6.27527,29017
6.28265,26773
6.29003,26075
6.2974,25245
6.30478,26348
6.31215,25983
6.31953,24757
6.3269,23549
6.33428,22519
6.34167,21260
6.34903,22209
6.35642,23592
6.36378,23362
6.37117,21919
6.37855,23053
6.38592,30999
6.3933,38016
6.40067,30710
6.40805,26960
6.41542,27695
6.4228,30841
6.43018,37342
6.43755,32031
6.44493,24228
6.4523,21762
6.45968,22840
6.46705,23560
6.47443,25059
6.48182,25903
6.48918,24068
6.49657,21981
6.50393,22337
6.51132,26432
6.5187,25048
6.52607,21504
6.53345,26059
6.54082,49853
6.5482,71773
6.55557,64805
6.56295,149946
6.57033,358966
6.5777,345118
6.58508,132941
6.59245,38787
6.59983,23554
6.60722,22330
6.61458,20770
6.62197,22052
6.62933,21907
6.63672,25513
6.64408,29294
6.65147,29561
6.65885,24558
6.66622,22437
6.6736,20985
6.68097,21360
6.68835,23370
6.69573,25420
6.7031,23097
6.71048,22329
6.71785,26150
6.72523,54888
6.7326,105057
6.73998,95604
6.74737,48025
6.75473,26436
6.76212,20858
6.76948,20603
6.77687,20361
6.78425,20075
6.79162,19583
6.799,20287
6.80637,21864
6.81375,21363
6.82112,21162
6.8285,22908
6.83588,25039
6.84325,27548
6.85063,43319
6.858,69957
6.86538,72181
6.87277,105986
6.88013,128756
6.88752,73606
6.89488,41216
6.90227,30608
6.90963,34363
6.91702,57075
6.9244,75592
6.93177,75725
6.93915,62928
6.94652,103645
6.9539,165654
6.96128,117525
6.96865,59694
6.97603,32716
6.9834,24575
6.99078,25014
6.99815,31137
7.00553,32394
7.01292,27728
7.02028,23412
7.02767,23884
7.03503,33536
7.04242,41426
7.04978,42176
7.05717,56994
7.06455,53589
7.07192,31375
7.0793,22983
7.08667,21309
7.09405,20710
7.10143,21302
7.1088,23974
7.11618,25801
7.12355,23784
7.13093,21656
7.1383,22279
7.14568,22958
7.15307,35326
7.16043,86211
7.16782,117913
7.17518,80500
7.18257,87738
7.18995,100983
7.19732,57726
7.2047,26452
7.21207,21588
7.21945,24454
7.22682,32962
7.2342,35778
7.24158,36669
7.24895,86656
7.25633,163228
7.2637,130625
7.27108,51490
7.27847,29777
7.28583,39868
7.29322,60904
7.30058,55095
7.30797,31516
7.31533,23012
7.32272,23625
7.3301,29968
7.33747,35035
7.34485,41197
7.35222,47158
7.3596,35677
7.36698,24421
7.37435,22619
7.38173,24223
7.3891,27231
7.39648,36671
7.40385,40741
7.41123,35303
7.41862,33261
7.42598,30016
7.43337,25433
7.44073,25574
7.44812,30014
7.4555,31548
7.46287,28808
7.47025,25935
7.47762,26851
7.485,41269
7.49237,60954
7.49975,58563
7.50713,38343
7.5145,32919
7.52188,37920
7.52925,43987
7.53663,43463
7.54402,39146
7.55138,29670
7.55877,29382
7.56613,31063
7.57352,31714
7.58088,44789
7.58827,101533
7.59565,137298
7.60302,95187
7.6104,44686
7.61777,29443
7.62515,35486
7.63252,95650
7.6399,196305
7.64728,171710
7.65465,70173
7.66203,39224
7.6694,33841
7.67678,28311
7.68417,26691
7.69153,29095
7.69892,37993
7.70628,52996
7.71367,61477
7.72103,45320
7.72842,36224
7.7358,34948
7.74317,32561
7.75055,31565
7.75792,30164
7.7653,31461
7.77268,37457
7.78005,46470
7.78743,52527
7.7948,59111
7.80218,63452
7.80955,48283
7.81693,47256
7.82432,43862
7.83168,40444
7.83907,46445
7.84643,66476
7.85382,119490
7.8612,132044
7.86857,117692
7.87595,141468
7.88332,99687
7.8907,58293
7.89807,56792
7.90545,61532
7.91283,74936
7.9202,102929
7.92758,121487
7.93495,133831
7.94233,81436
7.94972,71047
7.95708,108318
7.96447,144076
7.97183,224418
7.97922,238014
7.98658,176641
7.99397,129121
8.00135,94840
8.00872,169149
8.0161,254154
8.02347,150175
8.03085,65587
8.03823,87424
8.0456,119214
8.05298,96912
8.06035,68967
8.06773,90334
8.0751,114374
8.08248,188541
8.08987,232662
8.09723,155202
8.10462,100039
8.11198,81768
8.11937,87633
8.12675,96891
8.13412,114970
8.1415,95015
8.14887,63238
8.15625,54284
8.16362,52584
8.171,50446
8.17838,58380
8.18575,93209
8.19313,164122
8.2005,160031
8.20788,88643
8.21527,58226
8.22263,46889
8.23002,38372
8.23738,40267
8.24477,44274
8.25213,43909
8.25952,43001
8.2669,46825
8.27427,60543
8.28165,84240
8.28902,107197
8.2964,133953
8.30377,134430
8.31115,92684
8.31853,87345
8.3259,130123
8.33328,164661
8.34065,248030
8.34803,398708
8.35542,383090
8.36278,284688
8.37017,388258
8.37753,538302
8.38492,387090
8.39228,183408
8.39967,138162
8.40705,125856
8.41442,137423
8.4218,213871
8.42917,353926
8.43655,410393
8.44393,266736
8.4513,254024
8.45868,445516
8.46605,447017
8.47343,220656
8.4808,145442
8.48818,175763
8.49557,174823
8.50293,148464
8.51032,195627
8.51768,320462
8.52507,313371
8.53245,214853
8.53982,170878
8.5472,222873
8.55457,388180
8.56195,333777
8.56932,186419
8.5767,152312
8.58408,159466
8.59145,198023
8.59883,314904
8.6062,294203
8.61358,203689
8.62097,125310
8.62833,86201
8.63572,81554
8.64308,145847
8.65047,237955
8.65783,260794
8.66522,280757
8.6726,244174
8.67997,192852
8.68735,173906
8.69472,247354
8.7021,357198
8.70948,309876
8.71685,307788
8.72423,255629
8.7316,170784
8.73898,147148
8.74635,140866
8.75373,130220
8.76112,125492
8.76848,118348
8.77587,147172
8.78323,226339
8.79062,221793
8.798,225531
8.80537,325076
8.81275,373018
8.82012,333464
8.8275,297690
8.83487,382161
8.84225,392092
8.84963,329411
8.857,222626
8.86438,202019
8.87175,304857
8.87913,357170
8.8865,494773
8.89388,483010
8.90127,370583
8.90863,504693
8.91602,481203
8.92338,293080
8.93077,248394
8.93815,290696
8.94552,422534
8.9529,543069
8.96027,439960
8.96765,358416
8.97502,573892
8.9824,578735
8.98978,409740
8.99715,550153
9.00453,505371
9.0119,311188
9.01928,329850
9.02667,341761
9.03403,207042
9.04142,110816
9.04878,116113
9.05617,235424
9.06353,487434
9.07092,492993
9.0783,299421
9.08567,300656
9.09305,297760
9.10042,239345
9.1078,309455
9.11518,437571
9.12255,355038
9.12993,213791
9.1373,234104
9.14468,307468
9.15205,303229
9.15943,229489
9.16682,200909
9.17418,243039
9.18157,210634
9.18893,222981
9.19632,342123
9.2037,361751
9.21107,248432
9.21845,129621
9.22582,107941
9.2332,122163
9.24057,185393
9.24795,274012
9.25533,334114
9.2627,433731
9.27008,476379
9.27745,354325
9.28483,225428
9.29222,229324
9.29958,321270
9.30697,309504
9.31433,232312
9.32172,239839
9.32908,295789
9.33647,450395
9.34385,465980
9.35122,292165
9.3586,251270
9.36597,254806
9.37335,245093
9.38073,219229
9.3881,273119
9.39548,380132
9.40285,321664
9.41023,226579
9.4176,232963
9.42498,299497
9.43237,483201
9.43973,526741
9.44712,354883
9.45448,230673
9.46187,167369
9.46923,176366
9.47662,190037
9.484,214883
9.49137,293567
9.49875,269605
9.50612,193048
9.5135,180204
9.52088,157014
9.52825,116159
9.53563,109876
9.543,120211
9.55038,130207
9.55775,137485
9.56513,132991
9.57252,103464
9.57988,78869
9.58727,92530
9.59463,162866
9.60202,291513
9.6094,304639
9.61677,189306
9.62415,144694
9.63152,132206
9.6389,123108
9.64627,139449
9.65365,156800
9.66103,141653
9.6684,119833
9.67578,108882
9.68315,101430
9.69053,95231
9.69792,92200
9.70528,98765
9.71267,85462
9.72003,96139
9.72742,112279
9.73478,102092
9.74217,81940
9.74955,62056
9.75692,55560
9.7643,52755
9.77167,57881
9.77905,71253
9.78643,73895
9.7938,86658
9.80118,119601
9.80855,118199
9.81593,76647
9.8233,70251
9.83068,99356
9.83807,93527
9.84543,63632
9.85282,55084
9.86018,61370
9.86757,65046
9.87495,73150
9.88232,77248
9.8897,79804
9.89707,79408
9.90445,70815
9.91182,61566
9.9192,66316
9.92658,66699
9.93395,55290
9.94133,54077
9.9487,52151
9.95608,47796
9.96347,41607
9.97083,41380
9.97822,49783
9.98558,64841
9.99297,68181
10.0003,56517
10.0077,51095
10.0151,44667
10.0225,41562
10.0299,43714
10.0372,51688
10.0446,56194
10.052,46506
10.0594,38198
10.0667,35114
10.0741,36687
10.0815,38493
10.0889,35197
10.0962,34384
10.1036,36739
10.111,34605
10.1184,32181
10.1257,31105
10.1331,33108
10.1405,34194
10.1479,37172
10.1553,38734
10.1626,37724
10.17,34106
10.1774,33105
10.1848,31394
10.1921,32448
10.1995,34095
10.2069,35195
10.2143,34328
10.2216,34312
10.229,34764
10.2364,40539
10.2438,54608
10.2511,51554
10.2585,37759
10.2659,33131
10.2733,33290
10.2807,33949
10.288,34691
10.2954,33657
10.3028,33094
10.3102,37399
10.3175,43738
10.3249,40964
10.3323,36539
10.3397,39954
10.347,42313
10.3544,38780
10.3618,34047
10.3692,34373
10.3765,36335
10.3839,37707
10.3913,34571
10.3987,30199
10.406,28700
10.4134,29383
10.4208,30660
10.4282,36163
10.4356,46164
10.4429,53180
10.4503,50401
10.4577,40935
10.4651,34297
10.4724,32097
10.4798,30427
10.4872,30716
10.4946,29701
10.5019,29394
10.5093,31521
10.5167,31260
10.5241,29338
10.5314,29708
10.5388,28631
10.5462,28527
10.5536,28161
10.561,31651
10.5683,43810
10.5757,64655
10.5831,67157
10.5905,47624
10.5978,39048
10.6052,43566
10.6126,47674
10.62,42636
10.6273,39325
10.6347,37839
10.6421,35523
10.6495,33234
10.6568,34401
10.6642,36859
10.6716,39880
10.679,41001
10.6864,35930
10.6937,29565
10.7011,29798
10.7085,27790
10.7159,29789
10.7232,30573
10.7306,30347
10.738,30347
10.7454,32710
10.7527,37291
10.7601,40472
10.7675,39036
10.7749,38486
10.7822,43177
10.7896,43786
10.797,43713
10.8044,47152
10.8117,48268
10.8191,42111
10.8265,30961
10.8339,28649
10.8413,27677
10.8486,28525
10.856,28265
10.8634,28357
10.8708,27609
10.8781,28115
10.8855,31147
10.8929,37427
10.9003,40154
10.9076,34643
10.915,29594
10.9224,28161
10.9298,28833
10.9371,28744
10.9445,28588
10.9519,28211
10.9593,27850
10.9667,26994
10.974,26760
10.9814,28431
10.9888,29096
10.9962,29156
11.0035,27352
11.0109,26919
11.0183,26141
11.0257,26027
11.033,27520
11.0404,28797
11.0478,31772
11.0552,39563
11.0625,44310
11.0699,39518
11.0773,31591
11.0847,30384
11.0921,33880
11.0994,34417
11.1068,31978
11.1142,31479
11.1216,31119
11.1289,31506
11.1363,32064
11.1437,30380
11.1511,29547
11.1584,29292
11.1658,29007
11.1732,30799
11.1806,33033
11.1879,32710
11.1953,29663
11.2027,27658
11.2101,27869
11.2174,29843
11.2248,31703
11.2322,29961
11.2396,29265
11.247,28469
11.2543,31262
11.2617,33526
11.2691,33403
11.2765,33559
11.2838,36780
11.2912,38766
11.2986,37188
11.306,31043
11.3133,27425
11.3207,26269
11.3281,26322
11.3355,26166
11.3428,27862
11.3502,30317
11.3576,28155
11.365,26619
11.3724,26501
11.3797,26619
11.3871,27676
11.3945,29983
11.4019,31058
11.4092,28864
11.4166,25352
11.424,26931
11.4314,28382
11.4387,26710
11.4461,27506
11.4535,29221
11.4609,32250
11.4682,33408
11.4756,34106
11.483,32953
11.4904,30944
11.4978,31168
11.5051,32973
11.5125,35392
11.5199,37573
11.5273,32930
11.5346,28606
11.542,27136
11.5494,26948
11.5568,26287
11.5641,26342
11.5715,26233
11.5789,26151
11.5863,26839
11.5936,31174
11.601,32840
11.6084,29030
11.6158,27879
11.6232,29884
11.6305,33981
11.6379,38812
11.6453,35769
11.6527,32292
11.66,30207
11.6674,27370
11.6748,26961
11.6822,26993
11.6895,27238
11.6969,25286
11.7043,24814
11.7117,24768
11.719,25696
11.7264,25112
11.7338,24764
11.7412,25059
11.7485,25132
11.7559,24693
11.7633,24831
11.7707,25170
11.7781,26501
11.7854,28226
11.7928,28912
11.8002,27727
11.8076,26339
11.8149,26115
11.8223,26364
11.8297,27782
11.8371,27996
11.8444,28982
11.8518,28278
11.8592,27382
11.8666,27345
11.8739,26898
11.8813,25637
11.8887,25712
11.8961,26022
11.9035,27247
11.9108,26302
11.9182,25622
11.9256,25657
11.933,26385
11.9403,28013
11.9477,28865
11.9551,28001
11.9625,27521
11.9698,28418
11.9772,28527
11.9846,28047
11.992,26317
11.9993,27344
12.0067,28129
12.0141,27474
12.0215,25726
12.0289,25870
12.0362,26106
12.0436,26013
12.051,26196
12.0584,26890
12.0657,27329
12.0731,26591
12.0805,26021
12.0879,26013
12.0952,25193
12.1026,24831
12.11,25890
12.1174,25734
12.1247,26086
12.1321,26995
12.1395,27540
12.1469,27777
12.1542,26087
12.1616,25993
12.169,25498
12.1764,25702
12.1838,24836
12.1911,25762
12.1985,26018
12.2059,25904
12.2133,25473
12.2206,25047
12.228,24855
12.2354,25627
12.2428,25231
12.2501,24595
12.2575,24437
12.2649,25314
12.2723,26930
12.2796,26853
12.287,26650
12.2944,26303
12.3018,26607
12.3092,25884
12.3165,25062
12.3239,25230
12.3313,24610
12.3387,24203
12.346,24636
12.3534,24675
12.3608,24001
12.3682,23907
12.3755,23898
12.3829,24383
12.3903,24614
12.3977,25065
12.405,27179
12.4124,31852
12.4198,30871
12.4272,27715
12.4346,24493
12.4419,23677
12.4493,24012
12.4567,24824
12.4641,24123
12.4714,24502
12.4788,24839
12.4862,23297
12.4936,23365
12.5009,23820
12.5083,23942
12.5157,25683
12.5231,24693
12.5304,23267
12.5378,23630
12.5452,23407
12.5526,23756
12.5599,24885
12.5673,23690
12.5747,23523
12.5821,23624
12.5895,24314
12.5968,23704
12.6042,24008
12.6116,24273
12.619,24578
12.6263,24109
12.6337,24277
12.6411,24438
12.6485,24273
12.6558,25134
12.6632,26122
12.6706,26357
12.678,25530
12.6853,24640
12.6927,24132
12.7001,23302
12.7075,24189
12.7149,24294
12.7222,24568
12.7296,23779
12.737,24548
12.7444,24003
12.7517,24029
12.7591,24004
12.7665,24355
12.7739,23720
12.7812,23173
12.7886,23236
12.796,24353
12.8034,23924
12.8107,23737
12.8181,24227
12.8255,23936
12.8329,24011
12.8403,24720
12.8476,23675
12.855,24036
12.8624,22744
12.8698,23677
12.8771,25088
12.8845,24313
12.8919,24291
12.8993,24331
12.9066,23893
12.914,23944
12.9214,24045
12.9288,23989
12.9361,24202
12.9435,24041
12.9509,24160
12.9583,23971
12.9656,23613
12.973,23507
12.9804,25044
12.9878,24789
12.9952,23836
13.0025,23783
13.0099,23828
13.0173,23867
13.0247,24249
13.032,23489
13.0394,23520
13.0468,23723
13.0542,23526
13.0615,23419
13.0689,23616
13.0763,24060
13.0837,23357
13.091,24215
13.0984,24090
13.1058,23842
13.1132,23786
13.1206,24044
13.1279,24539
13.1353,24629
13.1427,24079
13.1501,24544
13.1574,24352
13.1648,25509
13.1722,24397
13.1796,23850
13.1869,23655
13.1943,23842
13.2017,23488
13.2091,23586
13.2164,24259
13.2238,23278
13.2312,24075
13.2386,24002
13.246,23772
13.2533,23603
13.2607,23975
13.2681,23970
13.2755,24674
13.2828,24095
13.2902,23560
13.2976,23484
13.305,24132
13.3123,23526
13.3197,24128
13.3271,23534
13.3345,24216
13.3418,24139
13.3492,24339
13.3566,23455
13.364,24024
13.3714,24536
13.3787,23590
13.3861,24523
13.3935,24058
13.4009,24518
13.4082,24764
13.4156,23913
13.423,24081
13.4304,24198
13.4377,23679
13.4451,23767
13.4525,23637
13.4599,24170
13.4672,25041
13.4746,24915
13.482,24784
13.4894,24013
13.4967,24163
13.5041,24455
13.5115,24419
13.5189,24062
13.5263,23648
13.5336,23704
13.541,24213
13.5484,24572
13.5558,23803
13.5631,24190
13.5705,25168
13.5779,28796
13.5853,29376
13.5926,27407
13.6,24657
13.6074,24376
13.6148,23954
13.6221,24814
13.6295,24158
13.6369,24039
13.6443,23776
13.6517,24277
13.659,23964
13.6664,23924
13.6738,25060
13.6812,24528
13.6885,24384
13.6959,24027
13.7033,23565
13.7107,24217
13.718,24835
13.7254,24312
13.7328,24413
13.7402,24865
13.7475,25132
13.7549,24361
13.7623,24186
13.7697,24192
13.7771,24164
13.7844,24603
13.7918,23955
13.7992,24327
13.8066,24499
13.8139,24485
13.8213,24753
13.8287,23782
13.8361,24673
13.8434,24555
13.8508,24346
13.8582,24397
13.8656,25546
13.8729,24374
13.8803,24164
13.8877,24975
13.8951,24325
13.9024,24210
13.9098,23822
13.9172,24768
13.9246,25202
13.932,25539
13.9393,24913
13.9467,25040
13.9541,25283
13.9615,25472
13.9688,25188
13.9762,25470
13.9836,26027
13.991,25226
13.9983,25623
14.0057,24850
14.0131,25415
14.0205,24896
14.0278,25399
14.0352,24502
14.0426,24915
14.05,25475
14.0574,25506
14.0647,25038
14.0721,25307
14.0795,25314
14.0869,26269
14.0942,26282
14.1016,25954
14.109,26594
14.1164,25235
14.1237,26013
14.1311,25594
14.1385,25382
14.1459,26249
14.1532,26137
14.1606,26085
14.168,25534
14.1754,26706
14.1828,26130
14.1901,26775
14.1975,26610
14.2049,26763
14.2123,26861
14.2196,26111
14.227,26215
14.2344,26204
14.2418,25937
14.2491,27317
14.2565,27256
14.2639,26162
14.2713,26092
14.2786,26708
14.286,26776
14.2934,26806
14.3008,26529
14.3081,25802
14.3155,26556
14.3229,26406
14.3303,26679
14.3377,26656
14.345,26673
14.3524,26745
14.3598,26595
14.3672,26886
14.3745,26649
14.3819,27249
14.3893,26867
14.3967,26531
14.404,26873
14.4114,27484
14.4188,27332
14.4262,26835
14.4335,27675
14.4409,27606
14.4483,26341
14.4557,27419
14.4631,27562
14.4704,28377
14.4778,28328
14.4852,27798
14.4926,28346
14.4999,28701
14.5073,28129
14.5147,27770
14.5221,28186
14.5294,29004
14.5368,29214
14.5442,28189
14.5516,28833
14.5589,29524
14.5663,29052
14.5737,29372
14.5811,28828
14.5885,32048
14.5958,34372
14.6032,32865
14.6106,30880
14.618,30391
14.6253,30596
14.6327,30864
14.6401,30936
14.6475,32055
14.6548,31158
14.6622,31689
14.6696,31400
14.677,30409
14.6843,32185
14.6917,32905
14.6991,33052
14.7065,33904
14.7139,34304
14.7212,34328
14.7286,33597
14.736,34828
14.7434,35295
14.7507,35617
14.7581,36342
14.7655,35845
14.7729,35766
14.7802,35996
14.7876,35791
14.795,34851
14.8024,35533
14.8097,35410
14.8171,34973
14.8245,34415
14.8319,35434
14.8392,35021
14.8466,35103
14.854,34983
14.8614,35108
14.8688,35906
14.8761,35544
14.8835,35181
14.8909,34755
14.8983,36028
14.9056,35880
14.913,36410
14.9204,37397
14.9278,35911
14.9351,36471
14.9425,37940
14.9499,36297
14.9573,36238
14.9646,36480
14.972,36662
14.9794,36736
14.9868,35571
14.9942,36403
15.0015,36610
15.0089,36511
15.0163,37029
15.0237,37766
15.031,36488
15.0384,37747
15.0458,37763
15.0532,38273
15.0605,37380
15.0679,37923
15.0753,37577
15.0827,38393
15.09,37319
15.0974,37472
15.1048,37784
15.1122,38407
15.1196,38562
15.1269,37214
15.1343,38746
15.1417,36965
15.1491,38262
15.1564,38731
15.1638,39675
15.1712,39052
15.1786,38740
15.1859,39746
15.1933,39772
15.2007,39872
15.2081,40473
15.2154,40136
15.2228,40597
15.2302,42167
15.2376,41669
15.2449,43075
15.2523,45187
15.2597,45310
15.2671,47414
15.2745,47119
15.2818,49663
15.2892,52094
15.2966,55132
15.304,60725
15.3113,65829
15.3187,74963
15.3261,78327
15.3335,87432
15.3408,92192
15.3482,108867
15.3556,113185
15.363,120465
15.3703,127226
15.3777,131112
15.3851,139415
15.3925,131789
15.3999,128754
15.4072,123958
15.4146,122361
15.422,124512
15.4294,119595
15.4367,116646
15.4441,109947
15.4515,98784
15.4589,94895
15.4662,97686
15.4736,101082
15.481,100511
15.4884,102371
15.4957,100607
15.5031,95368
15.5105,92536
15.5179,91249
15.5253,87823
15.5326,85944
15.54,86389
15.5474,86614
15.5548,83264
15.5621,86470
15.5695,86800
15.5769,83764
15.5843,85517
15.5916,83716
15.599,84840
15.6064,82688
15.6138,77331
15.6211,68255
15.6285,64465
15.6359,63047
15.6433,61168
15.6506,60604
15.658,61369
15.6654,60685
15.6728,60644
15.6802,61767
15.6875,62052
15.6949,61471
15.7023,61809
15.7097,62514
15.717,60773
15.7244,63684
15.7318,63322
15.7392,62858
15.7465,62987
15.7539,65399
15.7613,64541
15.7687,64746
15.776,65155
15.7834,64337
15.7908,65512
15.7982,66283
15.8056,66820
15.8129,67617
15.8203,68671
15.8277,68110
15.8351,67736
15.8424,70748
15.8498,70998
15.8572,71387
15.8646,72200
15.8719,70590
15.8793,72162
15.8867,74399
15.8941,74385
15.9014,76272
15.9088,75880
15.9162,76361
15.9236,76604
15.931,77557
15.9383,78941
15.9457,79530
15.9531,78049
15.9605,78292
15.9678,78984
15.9752,79022
15.9826,80878
15.99,82544
15.9973,82024
16.0047,82683
16.0121,82778
16.0195,82806
16.0268,82782
16.0342,83263
16.0416,84212
16.049,85067
16.0563,84565
16.0637,84096
16.0711,83261
16.0785,84100
16.0859,85772
16.0932,90357
16.1006,90414
16.108,87563
16.1153,87124
16.1227,86457
16.1301,86556
16.1375,86436
16.1449,87820
16.1522,89419
16.1596,90206
16.167,89962
16.1744,92607
16.1817,93596
16.1891,95018
16.1965,98347
16.2039,98209
16.2113,100535
16.2186,99875
16.226,101026
16.2334,103717
16.2407,101873
16.2481,104465
16.2555,105110
16.2629,105390
16.2703,104180
16.2776,103887
16.285,101492
16.2924,101183
16.2998,98981
16.3071,98246
16.3145,99206
16.3219,97060
16.3293,97921
16.3366,96691
16.344,98759
16.3514,96927
16.3588,97689
16.3662,98589
16.3735,98351
16.3809,96931
16.3883,98286
16.3957,99689
16.403,98436
16.4104,99313
16.4178,98513
16.4252,101160
16.4325,99705
16.4399,100986
16.4473,99178
16.4547,100016
16.4621,101320
16.4694,101328
16.4768,101751
16.4842,104453
16.4916,101821
16.4989,102775
16.5063,101930
16.5137,102866
16.521,102254
16.5284,103141
16.5358,103756
16.5432,101885
16.5506,104135
16.5579,104985
16.5653,105801
16.5727,106393
16.5801,105480
16.5874,107038
16.5948,105442
16.6022,106463
16.6096,106273
16.6169,105587
16.6243,104277
16.6317,105660
16.6391,107070
16.6465,105883
16.6538,106920
16.6612,113730
16.6686,130849
16.676,139808
16.6833,125083
16.6907,115690
16.6981,111059
16.7055,111518
16.7128,111900
16.7202,112096
16.7276,112135
16.735,113547
16.7423,116814
16.7497,119057
16.7571,117247
16.7645,115105
16.7719,111716
16.7792,112589
16.7866,112841
16.794,111594
16.8013,112215
16.8087,112411
16.8161,112756
16.8235,112841
16.8309,113614
16.8382,113843
16.8456,111845
16.853,113131
16.8604,113614
16.8678,114897
16.8751,114694
16.8825,113615
16.8899,114829
16.8973,116964
16.9046,116828
16.912,116287
16.9194,117191
16.9267,117832
16.9341,115684
16.9415,117498
16.9489,118594
16.9563,120107
16.9636,117996
16.971,119537
16.9784,119180
16.9858,119580
16.9931,120596
17.0005,119989
17.0079,118539
17.0153,118799
17.0226,118277
17.03,119559
17.0374,119760
17.0448,118546
17.0522,120862
17.0595,118842
17.0669,117856
17.0743,119547
17.0817,118550
17.089,119365
17.0964,117556
17.1038,116583
17.1112,115381
17.1185,118313
17.1259,117723
17.1333,118236
17.1407,118707
17.1481,118461
17.1554,121314
17.1628,118761
17.1702,119300
17.1776,119137
17.1849,119679
17.1923,118807
17.1997,118333
17.207,119219
17.2144,118258
17.2218,119015
17.2292,117975
17.2366,117914
17.2439,116708
17.2513,117835
17.2587,119219
17.2661,119605
17.2735,119165
17.2808,121505
17.2882,120361
17.2956,117350
17.3029,118369
17.3103,117575
17.3177,118170
17.3251,120210
17.3325,119179
17.3398,119827
17.3472,117844
17.3546,118642
17.362,116734
17.3693,118690
17.3767,118596
17.3841,118056
17.3915,118279
17.3988,117841
17.4062,119171
17.4136,121510
17.421,120792
17.4283,121280
17.4357,123082
17.4431,124441
17.4505,126106
17.4579,125633
17.4652,126439
17.4726,128659
17.48,128844
17.4873,130641
