D:\Data GC-MS-77B\2021\9 SEPTEMBER\12-09-21\46831-21 3 GS.D 12 Sep 21  12:32 pm
Start of data points
1.29387,4778
1.30062,4624
1.30737,4453
1.3141,4728
1.32085,27986
1.32758,1000754
1.33433,4772702
1.34107,4425900
1.34782,4664328
1.35457,4727869
1.3613,4806389
1.36805,4892565
1.37478,4905841
1.38153,4765239
1.38827,4798820
1.39502,4915524
1.40175,5001610
1.4085,4835325
1.41525,4285412
1.42198,3124665
1.42873,2132546
1.43547,1641378
1.44222,1363688
1.44895,1160030
1.4557,948711
1.46245,757356
1.46918,610136
1.47593,477937
1.48267,368492
1.48942,281677
1.51028,294217
1.51765,210860
1.52503,153159
1.5324,113973
1.53978,89331
1.54715,71456
1.55453,86384
1.56192,117412
1.56928,115962
1.57667,111101
1.58403,100822
1.59142,87617
1.5988,77255
1.60617,81741
1.61355,115172
1.62092,135063
1.6283,132485
1.63567,123612
1.64305,120076
1.65043,118886
1.6578,99034
1.66518,84979
1.67255,76160
1.67993,70840
1.68732,78297
1.69468,69723
1.70207,66658
1.70943,62687
1.71682,55842
1.72418,56092
1.73157,64776
1.73895,60286
1.74632,56571
1.7537,51823
1.76107,47808
1.76845,42323
1.77583,35943
1.7832,31347
1.79058,29523
1.79795,28397
1.80533,27739
1.8127,26938
1.82008,28353
1.82747,30879
1.83483,33331
1.84222,38117
1.84958,53127
1.85697,77417
1.86435,158547
1.87172,197343
1.8791,292671
1.88647,403644
1.89385,391468
1.90122,348039
1.9086,284048
1.91598,213562
1.92335,150482
1.93073,122447
1.9381,139507
1.94548,135562
1.95287,123341
1.96023,109538
1.96762,93480
1.97498,79165
1.98237,69170
1.98973,58654
1.99712,51808
2.0045,50520
2.01187,45245
2.01925,50586
2.02662,81933
2.034,96829
2.04137,98364
2.04875,92581
2.05613,83588
2.0635,72725
2.07088,60632
2.07825,53704
2.08563,52450
2.09302,48454
2.10038,45521
2.10777,45134
2.11513,42322
2.12252,40100
2.12988,38034
2.13727,36531
2.14465,33215
2.15202,29675
2.1594,28286
2.16677,34075
2.17415,46064
2.18153,51265
2.1889,52050
2.19628,50725
2.20365,48556
2.21103,52448
2.2184,72175
2.22578,132563
2.23317,165763
2.24053,167597
2.24792,155969
2.25528,128457
2.26267,95235
2.27005,67198
2.27742,46333
2.2848,32461
2.29217,25838
2.29955,22601
2.30692,22583
2.3143,28144
2.32168,30605
2.32905,28981
2.33643,28118
2.3438,26358
2.35118,25215
2.35857,23244
2.36593,22847
2.37332,21141
2.38068,20617
2.38807,20704
2.39543,24681
2.40282,41394
2.4102,62622
2.41757,72309
2.42495,68994
2.43232,61473
2.4397,49754
2.44708,37076
2.45445,30077
2.46183,26593
2.4692,24904
2.47658,41449
2.48395,164012
2.49133,357777
2.49872,480978
2.50608,536096
2.51347,490012
2.52083,405526
2.52822,311485
2.5356,222029
2.54297,146837
2.55035,96759
2.55772,62365
2.5651,43464
2.57247,73624
2.57985,172111
2.58723,228154
2.5946,229800
2.60198,199242
2.60935,143930
2.61673,88185
2.62412,49305
2.63148,31222
2.63887,25839
2.64623,26115
2.65362,29900
2.66098,47346
2.66837,72224
2.67575,89463
2.68312,123272
2.6905,205336
2.69787,243763
2.70525,233599
2.71262,208901
2.72,185142
2.72738,139705
2.73475,104864
2.74213,75928
2.7495,55694
2.75688,39750
2.76427,32609
2.77163,30608
2.77902,32155
2.78638,34554
2.79377,66607
2.80113,150320
2.80852,200966
2.8159,195612
2.82327,159229
2.83065,113399
2.83802,81709
2.8454,78583
2.85278,89121
2.86015,92030
2.86753,83097
2.8749,68124
2.88228,55131
2.88965,42712
2.89703,36500
2.90442,32223
2.91178,29715
2.91917,33270
2.92653,38959
2.93392,38101
2.9413,36224
2.94867,33648
2.95605,37347
2.96342,40802
2.9708,41574
2.97817,37631
2.98555,30668
2.99293,25264
3.0003,21851
3.00768,24599
3.01505,27718
3.02243,28357
3.02982,30297
3.03718,47427
3.04457,92332
3.05193,172659
3.05932,227059
3.06668,250066
3.07407,285454
3.08145,254376
3.08882,190279
3.0962,126312
3.10357,80574
3.11095,75448
3.11833,85543
3.1257,88912
3.13308,111194
3.14045,129337
3.14783,128520
3.1552,105013
3.16258,93363
3.16997,96311
3.17733,99070
3.18472,82541
3.19208,60311
3.19947,41057
3.20685,29697
3.21422,31135
3.2216,54563
3.22897,81785
3.23635,90435
3.24372,89074
3.2511,67101
3.25848,47210
3.26585,36019
3.27323,31104
3.2806,32603
3.28798,35189
3.29535,36345
3.30273,39890
3.31012,53940
3.31748,97516
3.32487,164711
3.33223,183345
3.33962,152226
3.347,97365
3.35437,54555
3.36175,36668
3.36912,39905
3.3765,85288
3.38387,138905
3.39125,170102
3.39863,148851
3.406,105907
3.41338,74138
3.42075,63050
3.42813,83238
3.43552,138026
3.44288,163631
3.45027,141927
3.45763,101301
3.46502,66045
3.47238,50319
3.47977,69660
3.48715,194767
3.49452,381544
3.5019,444809
3.50927,406996
3.51665,401443
3.52403,1377350
3.5314,4595305
3.53878,7150585
3.54615,6862191
3.55353,4557293
3.5609,2146922
3.56828,790872
3.57567,397691
3.58303,483843
3.59042,544961
3.59778,473591
3.60517,322199
3.61255,191277
3.61992,111838
3.6273,67021
3.63467,43923
3.64205,43267
3.64942,95245
3.6568,187667
3.66418,229450
3.67155,219879
3.67893,176989
3.6863,130606
3.69368,91947
3.70107,57774
3.70843,34477
3.71582,23891
3.72318,21235
3.73057,21841
3.73793,29944
3.74532,44836
3.7527,58567
3.76007,85761
3.76745,140190
3.77482,160575
3.7822,140398
3.78958,117079
3.79695,142953
3.80433,168948
3.8117,164286
3.81908,140443
3.82645,104153
3.83383,67658
3.84122,48106
3.84858,48857
3.85597,60996
3.86333,72581
3.87072,78276
3.87808,156763
3.88547,527383
3.89285,904564
3.90022,836343
3.9076,465651
3.91497,191062
3.92235,109943
3.92973,92561
3.9371,71223
3.94448,55225
3.95185,52901
3.95923,66738
3.9666,120986
3.97398,211306
3.98137,240796
3.98873,172260
3.99612,87875
4.00348,57467
4.01087,85887
4.01825,132357
4.02562,162302
4.033,142351
4.04037,104528
4.04775,84253
4.05512,70356
4.0625,61557
4.06988,73875
4.07725,83114
4.08463,70884
4.092,49735
4.09938,42796
4.10677,50412
4.11413,52228
4.12152,43396
4.12888,37996
4.13627,43690
4.14363,84319
4.15102,190178
4.1584,271944
4.16577,245847
4.17315,192215
4.18052,149032
4.1879,99046
4.19528,65696
4.20265,61324
4.21003,87638
4.2174,132917
4.22478,237951
4.23215,370711
4.23953,355824
4.24692,222203
4.25428,120558
4.26167,110867
4.26903,115105
4.27642,109029
4.2838,135487
4.29117,193404
4.29855,221052
4.30592,368171
4.3133,710417
4.32067,835964
4.32805,573600
4.33543,276548
4.3428,150878
4.35018,172959
4.35755,239888
4.36493,226252
4.37232,141054
4.37968,116244
4.38707,147000
4.39443,166129
4.40182,167571
4.40918,164910
4.41657,189723
4.42395,207715
4.43132,160311
4.4387,102828
4.44607,74988
4.45345,84565
4.46082,109919
4.4682,115640
4.47558,107679
4.48295,104707
4.49033,124142
4.4977,124418
4.50508,117446
4.51247,123764
4.51983,128501
4.52722,166783
4.53458,229544
4.54197,224112
4.54933,152411
4.55672,115674
4.5641,202169
4.57147,330678
4.57885,336793
4.58622,244382
4.5936,186103
4.60098,188424
4.60835,197349
4.61573,213957
4.6231,242752
4.63048,220422
4.63785,269103
4.64523,1687759
4.65262,6217056
4.65998,10201056
4.66737,9470005
4.67473,5349477
4.68212,1842890
4.6895,457020
4.69687,153677
4.70425,111674
4.71162,82442
4.719,60888
4.72637,127451
4.73375,1147111
4.74113,6565286
4.7485,15661894
4.75588,23393180
4.76325,27309928
4.77063,21468378
4.77802,5043897
4.78538,450343
4.79277,160484
4.80013,133378
4.80752,118796
4.81488,115355
4.82227,153213
4.82965,208616
4.83702,263519
4.8444,251281
4.85177,175164
4.85915,133491
4.86653,164489
4.8739,189297
4.88128,150992
4.88865,81714
4.89603,63039
4.9034,114463
4.91078,181196
4.91817,182243
4.92553,238171
4.93292,370854
4.94028,382990
4.94767,342801
4.95505,334190
4.96242,354045
4.9698,441773
4.97717,362440
4.98455,221857
4.99192,245080
4.9993,247208
5.00668,194503
5.01405,190879
5.02143,425803
5.0288,2922059
5.03618,10454852
5.04355,17996354
5.05093,18602518
5.05832,7862293
5.06568,1019596
5.07307,484772
5.08043,1640759
5.08782,2773173
5.0952,1698127
5.10257,382012
5.10995,121199
5.11732,109192
5.1247,93566
5.13207,73574
5.13945,51807
5.14683,47458
5.1542,77297
5.16158,116939
5.16895,156349
5.17633,188386
5.18372,163968
5.19108,150879
5.19847,255391
5.20583,358426
5.21322,240617
5.22058,127708
5.22797,177555
5.23535,251089
5.24272,220870
5.2501,149381
5.25747,96995
5.26485,67611
5.27223,85665
5.2796,135045
5.28698,185062
5.29435,316340
5.30173,374884
5.3091,266748
5.31648,146091
5.32387,88731
5.33123,91034
5.33862,102148
5.34598,102877
5.35337,147870
5.36075,288006
5.36812,390121
5.3755,477396
5.38287,583218
5.39025,483142
5.39762,299268
5.405,526575
5.41238,1722521
5.41975,2532005
5.42713,1569409
5.4345,673588
5.44188,353605
5.44927,311418
5.45663,274466
5.46402,208637
5.47138,303338
5.47877,545691
5.48613,907547
5.49352,993610
5.5009,532040
5.50827,319049
5.51565,366405
5.52302,267044
5.5304,147241
5.53778,114132
5.54515,122747
5.55253,227104
5.5599,371435
5.56728,372634
5.57465,291663
5.58203,341860
5.58942,361811
5.59678,216995
5.60417,146247
5.61153,167114
5.61892,186408
5.62628,156565
5.63367,141410
5.64105,181346
5.64842,189345
5.6558,184858
5.66317,162742
5.67055,148774
5.67793,153040
5.6853,157575
5.69268,179562
5.70005,174380
5.70743,127664
5.7148,88425
5.72218,91365
5.72957,205304
5.73693,421322
5.74432,725982
5.75168,2256328
5.75907,6460931
5.76645,9488285
5.77382,6294773
5.7812,1581423
5.78857,262695
5.79595,368238
5.80332,742175
5.8107,743236
5.81808,1128922
5.82545,1561526
5.83283,947977
5.8402,2309818
5.84758,9189255
5.85497,17128538
5.86233,22541912
5.86972,24134374
5.87708,18664950
5.88447,16931276
5.89183,8057982
5.89922,1023652
5.9066,218326
5.91397,324569
5.92135,1908521
5.92872,7443339
5.9361,15165752
5.94348,19931298
5.95085,12382940
5.95823,1305459
5.9656,181482
5.97298,245931
5.98035,306564
5.98773,358458
5.99512,338064
6.00248,241996
6.00987,207229
6.01723,215576
6.02462,171870
6.032,107165
6.03937,90433
6.04675,99981
6.05412,219247
6.0615,1628614
6.06887,7108679
6.07625,14013242
6.08363,12920459
6.091,3840621
6.09838,653160
6.10575,425966
6.11313,320044
6.12052,244083
6.12788,263617
6.13527,287467
6.14263,272955
6.15002,215784
6.15738,160827
6.16477,151294
6.17215,206264
6.17952,286596
6.1869,388484
6.19427,461018
6.20165,406405
6.20902,361928
6.2164,1791948
6.22378,7908762
6.23115,16652844
6.23853,24737266
6.2459,30846492
6.25328,34167556
6.26067,25430034
6.26803,1925360
6.27542,374872
6.28278,288732
6.29017,213663
6.29753,189610
6.30492,271988
6.3123,288257
6.31967,225181
6.32705,159050
6.33442,107349
6.3418,92802
6.34918,131961
6.35655,178814
6.36393,164307
6.3713,124035
6.37868,251549
6.38605,768589
6.39343,965289
6.40082,516735
6.40818,383405
6.41557,564647
6.42293,907847
6.43032,1068954
6.4377,611947
6.44507,255905
6.45245,203524
6.45982,233769
6.4672,252051
6.47457,375345
6.48195,426768
6.48933,279205
6.4967,219200
6.50408,345848
6.51145,596921
6.51883,471261
6.52622,541512
6.53358,809258
6.54097,1489839
6.54833,2485560
6.55572,2454230
6.56308,5946049
6.57047,13653329
6.57785,17987484
6.58522,10346828
6.5926,1495783
6.59997,370531
6.60735,276332
6.61473,281373
6.6221,260612
6.62948,262850
6.63685,422547
6.64423,606728
6.6516,489648
6.65898,351253
6.66637,363176
6.67373,482525
6.68112,461450
6.68848,468628
6.69587,489217
6.70325,360085
6.71062,345313
6.718,898579
6.72537,3461474
6.73275,6256492
6.74012,4221895
6.7475,1066367
6.75488,199564
6.76225,120420
6.76963,141067
6.777,166462
6.78438,144784
6.79175,128815
6.79913,177864
6.80652,254645
6.81388,244277
6.82127,324688
6.82863,677614
6.83602,886131
6.8434,1060591
6.85077,2828800
6.85815,4702745
6.86552,5208026
6.8729,8527959
6.88027,10065332
6.88765,5104241
6.89503,1806054
6.9024,1000754
6.90978,2001513
6.91715,4811032
6.92453,5996873
6.93192,5208580
6.93928,3852621
6.94667,7082604
6.95403,12892996
6.96142,11270950
6.96878,3604153
6.97617,1050120
6.98355,483610
6.99092,434981
6.9983,892500
7.00567,894776
7.01305,429484
7.02043,207511
7.0278,295159
7.03518,819599
7.04255,1520105
7.04993,2512703
7.0573,3876461
7.06468,2835652
7.07207,783582
7.07943,241553
7.08682,167091
7.09418,137610
7.10157,110437
7.10895,112212
7.11632,227653
7.1237,391686
7.13107,446358
7.13845,361143
7.14582,394778
7.1532,1789943
7.16058,5885898
7.16795,8461660
7.17533,5803732
7.1827,5932630
7.19008,8626338
7.19747,4536737
7.20483,754058
7.21222,207943
7.21958,369474
7.22697,854957
7.23433,1138722
7.24172,1593508
7.2491,5747460
7.25647,12372527
7.26385,12544643
7.27122,3853757
7.2786,594657
7.28598,965798
7.29335,2103382
7.30073,1879924
7.3081,664874
7.31548,235785
7.32285,362968
7.33023,876774
7.33762,1147537
7.34498,1233738
7.35237,1435790
7.35973,799618
7.36712,305278
7.37448,192105
7.38187,200428
7.38925,234182
7.39662,269104
7.404,278585
7.41137,406027
7.41875,583649
7.42613,465749
7.4335,270674
7.44088,342113
7.44825,594384
7.45563,498653
7.463,277687
7.47038,211639
7.47777,456598
7.48513,1755033
7.49252,3349707
7.49988,2391923
7.50727,753326
7.51465,381022
7.52202,436154
7.5294,463224
7.53677,427007
7.54415,312764
7.55152,185010
7.5589,271600
7.56628,349516
7.57365,479339
7.58103,2131084
7.5884,6896918
7.59578,10415349
7.60317,6659209
7.61053,1363603
7.61792,214985
7.62528,761345
7.63267,4289563
7.64003,11028829
7.64742,13372684
7.6548,5680069
7.66217,668150
7.66955,181760
7.67692,136215
7.6843,139586
7.69168,161700
7.69905,221724
7.70643,306403
7.7138,343065
7.72118,332293
7.72855,341459
7.73593,233164
7.74332,168889
7.75068,161900
7.75807,156292
7.76543,178043
7.77282,216843
7.7802,286367
7.78757,604935
7.79495,1136618
7.80232,911989
7.8097,342076
7.81707,221939
7.82445,214516
7.83183,321033
7.8392,671224
7.84658,2153180
7.85395,4273191
7.86133,3287123
7.86872,1884769
7.87608,1841109
7.88347,968580
7.89083,492440
7.89822,683896
7.90558,608685
7.91297,466720
7.92035,471508
7.92772,539064
7.9351,493230
7.94247,363395
7.94985,828608
7.95723,1425841
7.9646,2072993
7.97198,4006990
7.97935,5365303
7.98673,5534839
7.9941,3692107
8.00148,1570984
8.00887,1490260
8.01623,1295382
8.02362,566323
8.03098,375377
8.03837,712029
8.04573,1068472
8.05312,738455
8.0605,631355
8.06787,936659
8.07525,789413
8.08262,792216
8.09,912903
8.09738,944503
8.10475,726495
8.11213,547965
8.1195,542237
8.12688,693261
8.13425,815655
8.14163,453325
8.14902,163458
8.15638,111953
8.16377,102190
8.17113,124089
8.17852,263871
8.1859,832071
8.19327,1459663
8.20065,977023
8.20802,313950
8.2154,120474
8.22277,81704
8.23015,72260
8.23753,78552
8.2449,81316
8.25228,80092
8.25965,81906
8.26703,105445
8.27442,168140
8.28178,245902
8.28917,400229
8.29653,599616
8.30392,490199
8.31128,241759
8.31867,285888
8.32605,555752
8.33342,1058186
8.3408,3200338
8.34817,5910424
8.35555,4742172
8.36293,2025252
8.3703,1515682
8.37768,1327957
8.38505,689362
8.39243,404808
8.3998,274836
8.40718,276807
8.41457,477723
8.42193,1099251
8.42932,2115666
8.43668,1967809
8.44407,935820
8.45145,1277406
8.45882,2122259
8.4662,1394016
8.47357,411964
8.48095,202681
8.48832,230201
8.4957,223020
8.50308,206337
8.51045,281108
8.51783,349075
8.5252,274288
8.53258,229815
8.53997,328971
8.54733,907909
8.55472,1397157
8.56208,769672
8.56947,247496
8.57683,184793
8.58422,179484
8.5916,243507
8.59897,307928
8.60635,279692
8.61372,192812
8.6211,123945
8.62847,97872
8.63585,145295
8.64323,329134
8.6506,498984
8.65798,417824
8.66535,289148
8.67273,271361
8.68012,288315
8.68748,315185
8.69487,541334
8.70223,579120
8.70962,365064
8.71698,273915
8.72437,191614
8.73175,154248
8.73912,168355
8.7465,175748
8.75387,138962
8.76125,116732
8.76863,107311
8.776,137083
8.78338,181572
8.79075,222008
8.79813,440826
8.8055,778406
8.81288,888716
8.82027,712366
8.82763,654128
8.83502,705849
8.84238,518991
8.84977,273057
8.85715,176979
8.86452,266656
8.8719,372230
8.87927,407018
8.88665,444490
8.89402,328914
8.9014,289505
8.90878,380312
8.91615,339426
8.92353,324233
8.9309,334407
8.93828,367927
8.94567,415809
8.95303,361674
8.96042,338489
8.96778,847540
8.97517,1392807
8.98253,906796
8.98992,400688
8.9973,404886
9.00467,357583
9.01205,294730
9.01942,342303
9.0268,279091
9.03418,139632
9.04155,104110
9.04893,144523
9.0563,247237
9.06368,349024
9.07105,275662
9.07843,227811
9.08582,262397
9.09318,239855
9.10057,301710
9.10793,603461
9.11532,731467
9.1227,401034
9.13007,230663
9.13745,330155
9.14482,422221
9.1522,322606
9.15957,198257
9.16695,207432
9.17433,225305
9.1817,170611
9.18908,249348
9.19645,365301
9.20383,314746
9.2112,170305
9.21858,95583
9.22597,95446
9.23333,131446
9.24072,251063
9.24808,335755
9.25547,514610
9.26285,1172997
9.27022,1673369
9.2776,1016288
9.28497,327580
9.29235,362534
9.29972,524539
9.3071,363331
9.31448,193026
9.32185,200556
9.32923,250592
9.3366,306984
9.34398,220703
9.35137,140765
9.35873,151432
9.36612,172373
9.37348,181399
9.38087,190419
9.38823,288524
9.39562,325787
9.403,224173
9.41037,239114
9.41775,666262
9.42512,2528203
9.4325,5196548
9.43988,4418220
9.44725,1313042
9.45463,209205
9.462,104917
9.46938,111463
9.47675,122608
9.48413,170968
9.49152,176919
9.49888,116473
9.50627,87944
9.51363,85582
9.52102,76687
9.5284,71772
9.53577,77215
9.54315,80297
9.55052,91512
9.5579,103627
9.56527,105413
9.57265,90337
9.58003,104075
9.5874,409856
9.59478,1558834
9.60215,2625414
9.60953,1731375
9.61692,494766
9.62428,152319
9.63167,125700
9.63903,144429
9.64642,146919
9.65378,125352
9.66117,91002
9.66855,82194
9.67592,93110
9.6833,103172
9.69067,92415
9.69805,85776
9.70543,77866
9.7128,81269
9.72018,110790
9.72755,146676
9.73493,144308
9.7423,89139
9.74968,58629
9.75707,52055
9.76443,52487
9.77182,61540
9.77918,71400
9.78657,75081
9.79393,88280
9.80132,105130
9.8087,88758
9.81607,70850
9.82345,102879
9.83082,132587
9.8382,96378
9.84558,63441
9.85295,67016
9.86033,73408
9.8677,72256
9.87508,78924
9.88245,91097
9.88983,106175
9.89722,112406
9.90458,89030
9.91197,74685
9.91933,78106
9.92672,74285
9.9341,72856
9.94147,72987
9.94885,65087
9.95622,61197
9.9636,53322
9.97097,48144
9.97835,58515
9.98573,74120
9.9931,68547
10.0005,58563
10.0079,56982
10.0152,57605
10.0226,53701
10.03,57084
10.0374,64119
10.0447,62224
10.0521,51717
10.0595,45138
10.0669,48684
10.0743,58928
10.0816,63012
10.089,56348
10.0964,51822
10.1038,51263
10.1111,45470
10.1185,42056
10.1259,42718
10.1333,51080
10.1406,57640
10.148,58845
10.1554,52615
10.1628,47717
10.1701,50403
10.1775,55038
10.1849,65889
10.1923,101816
10.1997,109224
10.207,74508
10.2144,51297
10.2218,48291
10.2292,53976
10.2365,69289
10.2439,72025
10.2513,55692
10.2587,48196
10.266,49137
10.2734,48955
10.2808,47354
10.2882,49577
10.2955,50393
10.3029,68376
10.3103,132142
10.3177,170333
10.325,136622
10.3324,203474
10.3398,353324
10.3472,281164
10.3546,122639
10.3619,76201
10.3693,108926
10.3767,149191
10.3841,130698
10.3914,74448
10.3988,46976
10.4062,44877
10.4136,53310
10.4209,141665
10.4283,429261
10.4357,697548
10.4431,656254
10.4504,320988
10.4578,105829
10.4652,54847
10.4726,47564
10.48,43527
10.4873,43409
10.4947,45685
10.5021,55526
10.5095,71532
10.5168,73900
10.5242,52891
10.5316,40729
10.539,39229
10.5463,43111
10.5537,64599
10.5611,229452
10.5685,716387
10.5758,989512
10.5832,616638
10.5906,223164
10.598,268116
10.6054,433862
10.6127,333269
10.6201,126458
10.6275,55221
10.6349,45937
10.6422,48222
10.6496,62402
10.657,81026
10.6644,76243
10.6717,54383
10.6791,42762
10.6865,40841
10.6939,39756
10.7012,39233
10.7086,38487
10.716,37081
10.7234,35525
10.7307,42978
10.7381,99260
10.7455,250681
10.7529,327687
10.7603,237866
10.7676,114290
10.775,73251
10.7824,100870
10.7898,106797
10.7971,67219
10.8045,43205
10.8119,35925
10.8193,34008
10.8266,33517
10.834,36188
10.8414,37637
10.8488,45082
10.8561,79747
10.8635,118460
10.8709,106322
10.8783,84729
10.8857,149235
10.893,243407
10.9004,187344
10.9078,82003
10.9152,40707
10.9225,33141
10.9299,32649
10.9373,30894
10.9447,30752
10.952,31415
10.9594,31601
10.9668,29561
10.9742,27774
10.9815,28745
10.9889,31627
10.9963,33066
11.0037,30035
11.0111,29152
11.0184,27396
11.0258,26707
11.0332,27713
11.0406,27542
11.0479,29208
11.0553,32729
11.0627,36772
11.0701,34335
11.0774,29959
11.0848,31626
11.0922,37704
11.0996,53630
11.1069,84129
11.1143,83599
11.1217,52724
11.1291,36702
11.1364,35010
11.1438,33848
11.1512,45978
11.1586,63063
11.166,65756
11.1733,63105
11.1807,57772
11.1881,61574
11.1955,55379
11.2028,38887
11.2102,33474
11.2176,39925
11.225,40555
11.2323,35835
11.2397,32760
11.2471,35597
11.2545,46497
11.2618,42275
11.2692,34476
11.2766,49961
11.284,101787
11.2914,124413
11.2987,70162
11.3061,39635
11.3135,37996
11.3209,39836
11.3282,40376
11.3356,46975
11.343,43036
11.3504,32467
11.3577,26404
11.3651,27845
11.3725,36127
11.3799,54551
11.3872,67384
11.3946,51636
11.402,31580
11.4094,30423
11.4168,40922
11.4241,47166
11.4315,41331
11.4389,49611
11.4463,74291
11.4536,87682
11.461,102981
11.4684,142857
11.4758,126304
11.4831,67324
11.4905,40691
11.4979,52410
11.5053,94866
11.5126,160895
11.52,131343
11.5274,61969
11.5348,32318
11.5421,30041
11.5495,37609
11.5569,42749
11.5643,36245
11.5717,29975
11.579,29070
11.5864,29117
11.5938,26996
11.6012,25342
11.6085,24211
11.6159,25089
11.6233,24662
11.6307,26272
11.638,38638
11.6454,77358
11.6528,101186
11.6602,76475
11.6675,72030
11.6749,99828
11.6823,81539
11.6897,43629
11.6971,28471
11.7044,24432
11.7118,23728
11.7192,23111
11.7266,23107
11.7339,23133
11.7413,22448
11.7487,22126
11.7561,22383
11.7634,24927
11.7708,35407
11.7782,54959
11.7856,66343
11.7929,67287
11.8003,54914
11.8077,51160
11.8151,56865
11.8225,45358
11.8298,32714
11.8372,27502
11.8446,28453
11.852,27761
11.8593,26119
11.8667,25366
11.8741,26388
11.8815,25762
11.8888,25323
11.8962,28036
11.9036,26768
11.911,25205
11.9183,24909
11.9257,31973
11.9331,45101
11.9405,54677
11.9479,46508
11.9552,48268
11.9626,61846
11.97,63084
11.9774,54546
11.9847,39744
11.9921,33736
11.9995,37212
12.0069,36032
12.0142,30607
12.0216,26894
12.029,28392
12.0364,32264
12.0437,42676
12.0511,58099
12.0585,51419
12.0659,37678
12.0732,35243
12.0806,40807
12.088,43850
12.0954,37149
12.1028,32138
12.1101,35780
12.1175,38318
12.1249,43390
12.1323,54543
12.1396,60310
12.147,52067
12.1544,38591
12.1618,34300
12.1691,35995
12.1765,36101
12.1839,35344
12.1913,38641
12.1986,39130
12.206,33778
12.2134,26767
12.2208,26323
12.2282,30464
12.2355,33016
12.2429,32277
12.2503,32240
12.2577,32665
12.265,38779
12.2724,43450
12.2798,38612
12.2872,35308
12.2945,37427
12.3019,35647
12.3093,31366
12.3167,29463
12.324,28703
12.3314,26939
12.3388,25619
12.3462,24869
12.3536,25091
12.3609,25202
12.3683,23839
12.3757,24907
12.3831,26056
12.3904,25986
12.3978,26113
12.4052,27895
12.4126,27762
12.4199,25868
12.4273,23195
12.4347,22611
12.4421,24207
12.4494,28134
12.4568,28927
12.4642,27343
12.4716,25650
12.4789,24626
12.4863,23926
12.4937,23357
12.5011,24030
12.5085,25313
12.5158,25371
12.5232,24230
12.5306,22887
12.538,23477
12.5453,24066
12.5527,23686
12.5601,22393
12.5675,21577
12.5748,21922
12.5822,21666
12.5896,23044
12.597,22660
12.6043,22407
12.6117,23031
12.6191,26039
12.6265,29909
12.6339,29805
12.6412,29103
12.6486,27120
12.656,25721
12.6634,23978
12.6707,23549
12.6781,22217
12.6855,21437
12.6929,20826
12.7002,22689
12.7076,23407
12.715,23865
12.7224,25321
12.7297,27332
12.7371,27048
12.7445,27706
12.7519,31266
12.7593,31959
12.7666,28554
12.774,25964
12.7814,26215
12.7888,28432
12.7961,28929
12.8035,26801
12.8109,26022
12.8183,26917
12.8256,28349
12.833,28228
12.8404,27395
12.8478,28114
12.8551,28583
12.8625,27586
12.8699,27615
12.8773,27666
12.8846,26469
12.892,25594
12.8994,25756
12.9068,27130
12.9142,29082
12.9215,30479
12.9289,29601
12.9363,26967
12.9437,26171
12.951,26237
12.9584,26194
12.9658,25587
12.9732,25332
12.9805,24813
12.9879,24225
12.9953,24760
13.0027,26140
13.01,26281
13.0174,26232
13.0248,24909
13.0322,23441
13.0396,23679
13.0469,23404
13.0543,24319
13.0617,23640
13.0691,26143
13.0764,26969
13.0838,26113
13.0912,25469
13.0986,24014
13.1059,23205
13.1133,22989
13.1207,23888
13.1281,24820
13.1354,25415
13.1428,25398
13.1502,25098
13.1576,24676
13.165,24204
13.1723,23787
13.1797,22765
13.1871,23239
13.1945,23166
13.2018,23032
13.2092,22284
13.2166,21223
13.224,21108
13.2313,21493
13.2387,21662
13.2461,21333
13.2535,21617
13.2608,22232
13.2682,21958
13.2756,22109
13.283,22462
13.2904,21664
13.2977,22412
13.3051,22904
13.3125,23264
13.3199,22950
13.3272,22677
13.3346,22761
13.342,22635
13.3494,22988
13.3567,22676
13.3641,21972
13.3715,22401
13.3789,22170
13.3862,22487
13.3936,22676
13.401,23309
13.4084,23207
13.4157,22610
13.4231,23091
13.4305,22455
13.4379,21924
13.4453,21390
13.4526,21885
13.46,22217
13.4674,22232
13.4748,22261
13.4821,22208
13.4895,22406
13.4969,23450
13.5043,24086
13.5116,25197
13.519,24690
13.5264,24019
13.5338,23412
13.5411,23164
13.5485,22674
13.5559,22807
13.5633,22786
13.5707,24045
13.578,25607
13.5854,24937
13.5928,24589
13.6002,23853
13.6075,23262
13.6149,23201
13.6223,23014
13.6297,22997
13.637,22772
13.6444,22242
13.6518,21899
13.6592,22946
13.6665,22808
13.6739,22895
13.6813,22342
13.6887,23235
13.6961,23710
13.7034,24441
13.7108,23969
13.7182,24804
13.7256,23496
13.7329,23337
13.7403,23924
13.7477,23568
13.7551,23758
13.7624,24152
13.7698,24129
13.7772,23365
13.7846,23731
13.7919,22769
13.7993,23003
13.8067,23542
13.8141,23180
13.8214,23262
13.8288,22561
13.8362,23218
13.8436,23425
13.851,23303
13.8583,22745
13.8657,22846
13.8731,23137
13.8805,22909
13.8878,22994
13.8952,23784
13.9026,23220
13.91,23157
13.9173,23099
13.9247,23666
13.9321,22925
13.9395,24153
13.9468,24068
13.9542,23048
13.9616,22920
13.969,23401
13.9764,22781
13.9837,22760
13.9911,22926
13.9985,23124
14.0059,23451
14.0132,22746
14.0206,22990
14.028,23401
14.0354,22843
14.0427,23664
14.0501,23959
14.0575,23203
14.0649,23417
14.0722,23634
14.0796,23555
14.087,23653
14.0944,23460
14.1018,23383
14.1091,24025
14.1165,24290
14.1239,23252
14.1313,23826
14.1386,23407
14.146,23663
14.1534,23311
14.1608,23755
14.1681,23231
14.1755,24179
14.1829,23835
14.1903,23739
14.1976,24156
14.205,23232
14.2124,24213
14.2198,23826
14.2271,24265
14.2345,24505
14.2419,24126
14.2493,24475
14.2567,24047
14.264,23783
14.2714,23902
14.2788,24391
14.2862,24349
14.2935,25151
14.3009,26274
14.3083,25208
14.3157,24434
14.323,25851
14.3304,25187
14.3378,24644
14.3452,26114
14.3525,26263
14.3599,25003
14.3673,25635
14.3747,25437
14.3821,25629
14.3894,25417
14.3968,25073
14.4042,26552
14.4116,26013
14.4189,25801
14.4263,25779
14.4337,25858
14.4411,26003
14.4484,26908
14.4558,25786
14.4632,27229
14.4706,26229
14.4779,26915
14.4853,27182
14.4927,26918
14.5001,26552
14.5075,26181
14.5148,26827
14.5222,27578
14.5296,26845
14.537,26222
14.5443,26007
14.5517,26377
14.5591,26726
14.5665,26984
14.5738,27002
14.5812,27096
14.5886,28360
14.596,28902
14.6033,27946
14.6107,27586
14.6181,27531
14.6255,26907
14.6328,26774
14.6402,27474
14.6476,27481
14.655,26977
14.6624,27392
14.6697,28846
14.6771,28302
14.6845,28450
14.6919,28270
14.6992,28468
14.7066,28275
14.714,28904
14.7214,28629
14.7287,28328
14.7361,28676
14.7435,28126
14.7509,28790
14.7582,29046
14.7656,28975
14.773,29099
14.7804,29011
14.7878,28757
14.7951,29116
14.8025,29686
14.8099,29830
14.8173,29627
14.8246,29174
14.832,29783
14.8394,29351
14.8468,29666
14.8541,29931
14.8615,29565
14.8689,30310
14.8763,30385
14.8836,30217
14.891,30939
14.8984,31247
14.9058,31012
14.9132,30946
14.9205,31683
14.9279,31446
14.9353,30894
14.9427,30733
14.95,31398
14.9574,30167
14.9648,31753
14.9722,32473
14.9795,31839
14.9869,32504
14.9943,32620
15.0017,32277
15.009,32583
15.0164,32818
15.0238,32902
15.0312,32462
15.0386,33424
15.0459,33035
15.0533,33885
15.0607,33231
15.0681,34147
15.0754,33503
15.0828,34715
15.0902,34418
15.0976,35325
15.1049,34446
15.1123,34950
15.1197,35558
15.1271,35309
15.1344,35788
15.1418,36686
15.1492,36680
15.1566,37355
15.1639,37591
15.1713,36942
15.1787,38864
15.1861,38099
15.1935,38756
15.2008,39150
15.2082,39680
15.2156,39848
15.223,40495
15.2303,40560
15.2377,42826
15.2451,41976
15.2525,43456
15.2598,43344
15.2672,43492
15.2746,45454
15.282,46464
15.2893,45604
15.2967,48545
15.3041,47856
15.3115,49246
15.3189,49258
15.3262,49309
15.3336,49547
15.341,50762
15.3484,49588
15.3557,51507
15.3631,52586
15.3705,54987
15.3779,57767
15.3852,58286
15.3926,57682
15.4,58103
15.4074,58023
15.4147,58645
15.4221,59020
15.4295,59921
15.4369,60195
15.4443,59159
15.4516,58395
15.459,58339
15.4664,59232
15.4738,59350
15.4811,59582
15.4885,59009
15.4959,59473
15.5033,56401
15.5106,57746
15.518,58919
15.5254,58704
15.5328,58041
15.5401,56349
15.5475,57109
15.5549,55377
15.5623,53953
15.5696,54883
15.577,57369
15.5844,55598
15.5918,57570
15.5992,56850
15.6065,56592
15.6139,56717
15.6213,55950
15.6287,55253
15.636,55817
15.6434,55010
15.6508,54775
15.6582,55747
15.6655,55408
15.6729,55970
15.6803,55947
15.6877,56097
15.695,55328
15.7024,56855
15.7098,56761
15.7172,56390
15.7246,57454
15.7319,56618
15.7393,57336
15.7467,58673
15.7541,58111
15.7614,57675
15.7688,58481
15.7762,59649
15.7836,60731
15.7909,60272
15.7983,61247
15.8057,60835
15.8131,62321
15.8204,61310
15.8278,62189
15.8352,62743
15.8426,64378
15.85,63310
15.8573,63668
15.8647,64113
15.8721,64433
15.8795,64672
15.8868,64679
15.8942,64340
15.9016,66567
15.909,67355
15.9163,67528
15.9237,67863
15.9311,69077
15.9385,68793
15.9458,71340
15.9532,70432
15.9606,70894
15.968,70695
15.9753,71010
15.9827,72344
15.9901,73109
15.9975,73064
16.0049,72816
16.0122,73536
16.0196,75108
16.027,76994
16.0344,76378
16.0417,76082
16.0491,77242
16.0565,78592
16.0638,77966
16.0712,78940
16.0786,79502
16.086,79594
16.0934,82121
16.1007,80249
16.1081,80743
16.1155,81973
16.1229,81891
16.1303,82482
16.1376,82495
16.145,83413
16.1524,83055
16.1597,84244
16.1671,83570
16.1745,83666
16.1819,84982
16.1893,85046
16.1966,85648
16.204,86007
16.2114,85968
16.2188,87569
16.2261,87251
16.2335,87682
16.2409,86533
16.2483,87665
16.2556,88157
16.263,87150
16.2704,89633
16.2778,88983
16.2852,88364
16.2925,88177
16.2999,90906
16.3073,90681
16.3147,92138
16.322,90540
16.3294,91264
16.3368,90425
16.3442,92329
16.3515,91490
16.3589,91585
16.3663,92777
16.3737,94011
16.381,92352
16.3884,92308
16.3958,92996
16.4032,91866
16.4106,92982
16.4179,92164
16.4253,93427
16.4327,93099
16.44,93841
16.4474,93412
16.4548,95112
16.4622,95406
16.4696,94514
16.4769,97073
16.4843,95843
16.4917,95932
16.4991,96563
16.5064,97820
16.5138,95080
16.5212,95249
16.5286,95987
16.536,96901
16.5433,95865
16.5507,96093
16.5581,97730
16.5654,97713
16.5728,97068
16.5802,98986
16.5876,96600
16.595,99439
16.6023,98331
16.6097,100160
16.6171,97786
16.6245,98838
16.6318,99692
16.6392,99250
16.6466,100701
16.654,100738
16.6613,99001
16.6687,100440
16.6761,101241
16.6835,101302
16.6909,100601
16.6982,99874
16.7056,99676
16.713,102185
16.7204,101973
16.7277,102365
16.7351,102964
16.7425,103463
16.7499,105806
16.7572,104826
16.7646,103021
16.772,101965
16.7794,104273
16.7868,104269
16.7941,104052
16.8015,103265
16.8089,102099
16.8163,104235
16.8236,103838
16.831,105645
16.8384,102632
16.8457,104531
16.8531,104718
16.8605,105460
16.8679,104234
16.8753,104411
16.8826,105898
16.89,103713
16.8974,106796
16.9048,105050
16.9121,105548
16.9195,108206
16.9269,107412
16.9343,106689
16.9416,105357
16.949,108502
16.9564,107211
16.9638,106677
16.9712,105968
16.9785,107320
16.9859,108025
16.9933,107396
17.0007,106997
17.008,107385
17.0154,107380
17.0228,108018
17.0302,107692
17.0375,107731
17.0449,107099
17.0523,106775
17.0597,106322
17.067,107482
17.0744,107836
17.0818,107830
17.0892,107791
17.0966,108377
17.1039,107237
17.1113,107728
17.1187,108071
17.126,107721
17.1334,107707
17.1408,109034
17.1482,109002
17.1556,109018
17.1629,108624
17.1703,108871
17.1777,108958
17.1851,109446
17.1925,107952
17.1998,109736
17.2072,109442
17.2146,108777
17.222,109399
17.2293,109767
17.2367,109664
17.2441,109995
17.2514,109422
17.2588,109168
17.2662,110877
17.2736,110714
17.281,110033
17.2883,109742
17.2957,109783
17.3031,109879
17.3105,109712
17.3178,111325
17.3252,109861
17.3326,108295
17.34,108976
17.3473,110023
17.3547,110468
17.3621,109700
17.3695,110892
17.3769,109957
17.3842,111087
17.3916,109954
17.399,111886
17.4064,110044
17.4137,111045
17.4211,112759
17.4285,112018
17.4359,112845
17.4432,113380
17.4506,115464
17.458,115217
17.4654,114614
17.4728,117165
17.4801,117237
17.4875,118021
