D:\Data GC-MS\2021\9 SEPTEMBER\12-09-21\46831-21 6 GS.D 12 Sep 21  12:34 pm
Start of data points
1.29388,4407061
1.30063,4275444
1.30737,4185475
1.31412,4151565
1.32085,4144302
1.3276,4164195
1.33433,4201893
1.34108,4253820
1.34783,4296968
1.35457,4360381
1.36132,4376502
1.36805,4384644
1.3748,4318037
1.38153,4220623
1.38828,4017849
1.39503,3812099
1.40177,3537257
1.40852,3244326
1.41525,2961604
1.422,2676222
1.42873,2413415
1.43548,2175724
1.44222,1956059
1.44897,1765789
1.45572,1607457
1.46245,1464585
1.4692,1346375
1.47593,1239510
1.48268,1141603
1.48942,1060597
1.51028,3200752
1.51767,2991732
1.52503,2786479
1.53242,2607735
1.5398,2435736
1.54717,2261270
1.55455,2113145
1.56192,1963382
1.5693,1838672
1.57667,1701886
1.58405,1585707
1.59143,1470040
1.5988,1371876
1.60618,1258119
1.61355,1177352
1.62093,1091346
1.6283,1009192
1.63568,936629
1.64307,871898
1.65043,802584
1.65782,747707
1.66518,696365
1.67257,645816
1.67995,596408
1.68732,555651
1.6947,521905
1.70207,503850
1.70945,495892
1.71682,459584
1.7242,424719
1.73158,393476
1.73895,364204
1.74633,337231
1.7537,313427
1.76108,290579
1.76847,276849
1.77583,255806
1.78322,237855
1.79058,218331
1.79797,202296
1.80533,186108
1.81272,175644
1.8201,161592
1.82747,148293
1.83485,137407
1.84222,128357
1.8496,119358
1.85698,112826
1.86435,102094
1.87173,96229
1.8791,86663
1.88648,82203
1.89385,76007
1.90123,69785
1.90862,64922
1.91598,59391
1.92337,54670
1.93073,51941
1.93812,47930
1.9455,44870
1.95287,42359
1.96025,39114
1.96762,36338
1.975,35513
1.98237,33102
1.98975,31031
1.99713,30048
2.0045,28070
2.01188,25655
2.01925,24538
2.02663,24120
2.03402,24852
2.04138,31210
2.04877,35346
2.05613,33073
2.06352,31373
2.07088,28893
2.07827,28044
2.08565,26385
2.09302,24878
2.1004,23761
2.10777,21983
2.11515,20702
2.12253,19578
2.1299,19406
2.13728,19733
2.14465,19830
2.15203,18024
2.1594,17680
2.16678,16450
2.17417,14842
2.18153,15000
2.18892,14168
2.19628,13990
2.20367,14537
2.21103,14044
2.21842,13842
2.2258,13051
2.23317,13919
2.24055,12761
2.24792,12554
2.2553,12439
2.26268,11754
2.27005,16268
2.27743,32875
2.2848,44700
2.29218,44962
2.29955,48574
2.30693,55844
2.31432,54167
2.32168,51034
2.32907,49141
2.33643,49305
2.34382,46884
2.3512,43906
2.35857,40333
2.36595,39190
2.37332,38070
2.3807,42504
2.38807,45778
2.39545,42239
2.40283,39458
2.4102,36652
2.41758,32800
2.42495,30572
2.43233,27469
2.43972,25376
2.44708,23352
2.45447,20819
2.46183,19755
2.46922,19408
2.47658,20836
2.48397,22133
2.49135,24838
2.49872,28475
2.5061,30796
2.51347,28922
2.52085,27566
2.52823,27808
2.5356,27199
2.54298,25636
2.55035,24671
2.55773,22655
2.5651,21500
2.57248,20181
2.57987,18841
2.58723,17733
2.59462,20211
2.60198,24281
2.60937,24262
2.61675,23569
2.62412,22078
2.6315,22990
2.63887,22666
2.64625,21131
2.65362,19139
2.661,18191
2.66838,18165
2.67575,16973
2.68313,16194
2.6905,14253
2.69788,13949
2.70527,13529
2.71263,12618
2.72002,11888
2.72738,11579
2.73477,11858
2.74213,11254
2.74952,10814
2.7569,10220
2.76427,9990
2.77165,9808
2.77902,9131
2.7864,8472
2.79377,8568
2.80115,8238
2.80853,8434
2.8159,8020
2.82328,8094
2.83065,8936
2.83803,14505
2.84542,20393
2.85278,22945
2.86017,24230
2.86753,27942
2.87492,33071
2.88228,33465
2.88967,31172
2.89705,29800
2.90442,30005
2.9118,28163
2.91917,27638
2.92655,27401
2.93393,25776
2.9413,23037
2.94868,22440
2.95605,20470
2.96343,19683
2.9708,19079
2.97818,19866
2.98557,18346
2.99293,16795
3.00032,15556
3.00768,13555
3.01507,13071
3.02245,13058
3.02982,13097
3.0372,14359
3.04457,14810
3.05195,14230
3.05932,13578
3.0667,12840
3.07408,12062
3.08145,11297
3.08883,10829
3.0962,10037
3.10358,10044
3.11097,10509
3.11833,14478
3.12572,17720
3.13308,17685
3.14047,17743
3.14783,18358
3.15522,19558
3.1626,18602
3.16997,16712
3.17735,16692
3.18472,16517
3.1921,18646
3.19948,19783
3.20685,18452
3.21423,17834
3.2216,18312
3.22898,20380
3.23635,20072
3.24373,18730
3.25112,17807
3.25848,17835
3.26587,15801
3.27323,15490
3.28062,18403
3.288,24260
3.29537,29463
3.30275,83208
3.31012,366097
3.3175,727984
3.32487,818727
3.33225,757277
3.33963,684494
3.347,609142
3.35438,535834
3.36175,475338
3.36913,419496
3.3765,365968
3.38388,312575
3.39127,250856
3.39863,193263
3.40602,152943
3.41338,118250
3.42077,93908
3.42815,75876
3.43552,60730
3.4429,47564
3.45027,38398
3.45765,30608
3.46502,26578
3.4724,25546
3.47978,26751
3.48715,26158
3.49453,22773
3.5019,20791
3.50928,21682
3.51667,21024
3.52403,18881
3.53142,17646
3.53878,15491
3.54617,14524
3.55353,13195
3.56092,12821
3.5683,12198
3.57567,14781
3.58305,16217
3.59042,16390
3.5978,16342
3.60518,18158
3.61255,18961
3.61993,19216
3.6273,18611
3.63468,17933
3.64205,17327
3.64943,16098
3.65682,15047
3.66418,14291
3.67157,13576
3.67893,18276
3.68632,23795
3.6937,26882
3.70107,25029
3.70845,25681
3.71582,24228
3.7232,23663
3.73057,21278
3.73795,18639
3.74533,16394
3.7527,14425
3.76008,13078
3.76745,12343
3.77483,11773
3.78222,13841
3.78958,17549
3.79697,20287
3.80433,19733
3.81172,17977
3.81908,16565
3.82647,15439
3.83385,14611
3.84122,13395
3.8486,11868
3.85597,11880
3.86335,11122
3.87073,11448
3.8781,10648
3.88548,10397
3.89285,9894
3.90023,9408
3.9076,9593
3.91498,8894
3.92237,8527
3.92973,8978
3.93712,10394
3.94448,10773
3.95187,10528
3.95923,10533
3.96662,9604
3.974,9660
3.98137,10647
3.98875,11833
3.99612,11089
4.0035,11237
4.01088,12021
4.01825,13013
4.02563,14382
4.033,14342
4.04038,13274
4.04775,13682
4.05513,13078
4.06252,12017
4.06988,11473
4.07727,10958
4.08463,12740
4.09202,15593
4.0994,20692
4.10677,22987
4.11415,22584
4.12152,22376
4.1289,24405
4.13627,23891
4.14365,20457
4.15103,17585
4.1584,15937
4.16578,15815
4.17315,18069
4.18053,18327
4.18792,17142
4.19528,16392
4.20267,15403
4.21003,14842
4.21742,13662
4.22478,13310
4.23217,13403
4.23955,13899
4.24692,14297
4.2543,12154
4.26167,11522
4.26905,10476
4.27643,10077
4.2838,10167
4.29118,9764
4.29855,10257
4.30593,9786
4.3133,9298
4.32068,9225
4.32807,8464
4.33543,8136
4.34282,8143
4.35018,8567
4.35757,10541
4.36495,12693
4.37232,14055
4.3797,14475
4.38707,15275
4.39445,15184
4.40182,15422
4.4092,15618
4.41658,36463
4.42395,159572
4.43133,332878
4.4387,385825
4.44608,339642
4.45347,284771
4.46083,222626
4.46822,167054
4.47558,109972
4.48297,69419
4.49033,44886
4.49772,30943
4.5051,21074
4.51247,16868
4.51985,37294
4.52722,249880
4.5346,826031
4.54197,1295411
4.54935,1424658
4.55673,1414015
4.5641,1226156
4.57148,895979
4.57885,615246
4.58623,398232
4.59362,235594
4.60098,135392
4.60837,81694
4.61573,48260
4.62312,32758
4.63048,22349
4.63787,18305
4.64525,15403
4.65262,13590
4.66,13895
4.66737,12985
4.67475,12091
4.68213,11369
4.6895,11178
4.69688,10223
4.70425,10910
4.71163,9770
4.719,9588
4.72638,9850
4.73377,11575
4.74113,14244
4.74852,14545
4.75588,14957
4.76327,14006
4.77065,12314
4.77802,11741
4.7854,13490
4.79277,16125
4.80015,49280
4.80752,276786
4.8149,712241
4.82228,918099
4.82965,782403
4.83703,609397
4.8444,407382
4.85178,238216
4.85917,130212
4.86653,69953
4.87392,42822
4.88128,35923
4.88867,37259
4.89603,34279
4.90342,27124
4.9108,19818
4.91817,13746
4.92555,11139
4.93292,8556
4.9403,8191
4.94768,8023
4.95505,8680
4.96243,8440
4.9698,8326
4.97718,7923
4.98455,7953
4.99193,7690
4.99932,8538
5.00668,9872
5.01407,11062
5.02143,13095
5.02882,14328
5.0362,12783
5.04357,9687
5.05095,8680
5.05832,8125
5.0657,9503
5.07307,10425
5.08045,11297
5.08783,11485
5.0952,9295
5.10258,9416
5.10995,8977
5.11733,8622
5.1247,8138
5.13208,7850
5.13947,7314
5.14683,7677
5.15422,8233
5.16158,9265
5.16897,12569
5.17635,20443
5.18372,39593
5.1911,59382
5.19847,53188
5.20585,36970
5.21322,24151
5.2206,15407
5.22798,12981
5.23535,12289
5.24273,11995
5.2501,10709
5.25748,9440
5.26487,8836
5.27223,8617
5.27962,10301
5.28698,15378
5.29437,21068
5.30173,19332
5.30912,17329
5.3165,14423
5.32387,13154
5.33125,10913
5.33862,9870
5.346,9564
5.35338,10451
5.36075,11968
5.36813,11932
5.3755,11013
5.38288,9759
5.39025,9443
5.39763,9491
5.40502,9067
5.41238,8791
5.41977,9276
5.42713,9122
5.43452,8614
5.4419,8592
5.44927,8662
5.45665,8875
5.46402,8922
5.4714,8431
5.47877,7342
5.48615,7359
5.49353,6923
5.5009,7009
5.50828,7485
5.51565,9104
5.52303,13518
5.53042,23507
5.53778,71753
5.54517,163766
5.55253,202830
5.55992,154688
5.56728,84704
5.57467,38342
5.58205,21631
5.58942,18009
5.5968,16103
5.60417,19315
5.61155,33244
5.61893,135253
5.6263,508364
5.63368,870147
5.64105,783260
5.64843,463902
5.6558,235354
5.66318,244252
5.67057,366248
5.67793,348220
5.68532,212459
5.69268,96146
5.70007,38337
5.70745,21025
5.71482,66603
5.7222,309353
5.72957,617871
5.73695,622409
5.74432,363314
5.7517,148254
5.75908,51652
5.76645,22866
5.77383,15984
5.7812,12596
5.78858,12379
5.79595,12507
5.80333,12425
5.81072,13804
5.81808,15062
5.82547,46252
5.83283,193982
5.84022,392580
5.8476,385194
5.85497,218292
5.86235,90140
5.86972,35398
5.8771,18508
5.88447,13579
5.89185,11351
5.89923,10725
5.9066,11138
5.91398,12467
5.92135,13052
5.92873,12939
5.93612,12117
5.94348,11650
5.95087,11923
5.95823,13160
5.96562,14670
5.97298,14422
5.98037,12436
5.98775,12676
5.99512,14756
6.0025,27529
6.00987,231298
6.01725,1111687
6.02463,2248038
6.032,2197173
6.03938,1063590
6.04675,318192
6.05413,102681
6.0615,80590
6.06888,57847
6.07627,29664
6.08363,18492
6.09102,15129
6.09838,12318
6.10577,11449
6.11315,12411
6.12052,12053
6.1279,10458
6.13527,9877
6.14265,10018
6.15002,10184
6.1574,9155
6.16478,9564
6.17215,16362
6.17953,26866
6.1869,29954
6.19428,29583
6.20167,35364
6.20903,36032
6.21642,24853
6.22378,14622
6.23117,11220
6.23853,11812
6.24592,13034
6.2533,11269
6.26067,13616
6.26805,19444
6.27542,19308
6.2828,14448
6.29018,11394
6.29755,17954
6.30493,52549
6.3123,100940
6.31968,92367
6.32705,95288
6.33443,324854
6.34182,697928
6.34918,667521
6.35657,331655
6.36393,112059
6.37132,58296
6.37868,47968
6.38607,30731
6.39345,19392
6.40082,20692
6.4082,21212
6.41557,17768
6.42295,16095
6.43033,14486
6.4377,12548
6.44508,18226
6.45245,35742
6.45983,44009
6.4672,32318
6.47458,23724
6.48197,24820
6.48933,32995
6.49672,66736
6.50408,144414
6.51147,188621
6.51885,127460
6.52622,54118
6.5336,23807
6.54097,17339
6.54835,14388
6.55572,11676
6.5631,10445
6.57048,11724
6.57785,13391
6.58523,17418
6.5926,18209
6.59998,17452
6.60737,32667
6.61473,112929
6.62212,239893
6.62948,229553
6.63687,106149
6.64423,66489
6.65162,234637
6.659,571178
6.66637,609313
6.67375,308660
6.68112,118686
6.6885,105130
6.69588,118109
6.70325,93905
6.71063,249623
6.718,843116
6.72538,1709353
6.73275,1804333
6.74013,854124
6.74752,214673
6.75488,87496
6.76227,60494
6.76963,81464
6.77702,208622
6.7844,265112
6.79177,156666
6.79915,85300
6.80652,55567
6.8139,57166
6.82127,160471
6.82865,328578
6.83603,317842
6.8434,229099
6.85078,257390
6.85815,200819
6.86553,77377
6.87292,48492
6.88028,47238
6.88767,34928
6.89503,23837
6.90242,27256
6.90978,58077
6.91717,102654
6.92455,230046
6.93192,810305
6.9393,1470477
6.94667,1119525
6.95405,451619
6.96142,627179
6.9688,1470389
6.97618,1442365
6.98355,570342
6.99093,108120
6.9983,40801
7.00568,44658
7.01307,74340
7.02043,240486
7.02782,988040
7.03518,2678528
7.04257,3618950
7.04993,1780991
7.05732,343692
7.0647,187197
7.07207,326891
7.07945,331400
7.08682,233016
7.0942,273651
7.10158,252048
7.10895,141574
7.11633,110403
7.1237,116107
7.13108,93100
7.13845,89650
7.14583,91584
7.15322,137836
7.16058,405517
7.16797,835720
7.17533,752794
7.18272,281107
7.1901,105008
7.19747,147448
7.20485,274931
7.21222,404764
7.2196,404119
7.22697,279475
7.23435,143931
7.24173,184857
7.2491,655719
7.25648,1292723
7.26385,1080542
7.27123,393872
7.27862,115810
7.28598,147925
7.29337,235968
7.30073,242684
7.30812,269625
7.31548,281063
7.32287,322557
7.33025,453810
7.33762,423304
7.345,368544
7.35237,305652
7.35975,196182
7.36713,207766
7.3745,612107
7.38188,2085804
7.38925,4540957
7.39663,6522173
7.404,5443861
7.41138,1957959
7.41877,1337764
7.42613,3730150
7.43352,7755858
7.44088,11335386
7.44827,8080044
7.45565,994572
7.46302,319235
7.4704,304506
7.47777,243820
7.48515,215830
7.49252,233632
7.4999,260506
7.50728,218711
7.51465,145693
7.52203,217945
7.5294,459919
7.53678,533085
7.54415,326834
7.55153,179695
7.55892,191697
7.56628,493744
7.57367,1104695
7.58103,1116731
7.58842,517936
7.5958,355916
7.60317,550795
7.61055,1273435
7.61792,2229049
7.6253,1848141
7.63267,780062
7.64005,506700
7.64743,1357641
7.6548,3361103
7.66218,4485871
7.66955,2854693
7.67693,985756
7.68432,480132
7.69168,397414
7.69907,597888
7.70643,665915
7.71382,370289
7.72118,342658
7.72857,657360
7.73595,1070831
7.74332,2198634
7.7507,4402115
7.75807,6241080
7.76545,5876209
7.77283,6709965
7.7802,6391134
7.78758,2604079
7.79495,1026011
7.80233,560133
7.8097,597452
7.81708,1046872
7.82447,2278773
7.83183,3608190
7.83922,3461716
7.84658,1998966
7.85397,729207
7.86135,351259
7.86872,356325
7.8761,742165
7.88347,1404744
7.89085,1553839
7.89822,1776400
7.9056,3044282
7.91298,2858075
7.92035,1003272
7.92773,363881
7.9351,364187
7.94248,333954
7.94987,277919
7.95723,214985
7.96462,280287
7.97198,662315
7.97937,1870335
7.98673,2932624
7.99412,1810429
8.0015,482601
8.00887,228564
8.01625,161462
8.02362,136760
8.031,128296
8.03838,185408
8.04575,260652
8.05313,230759
8.0605,201404
8.06788,267197
8.07525,302446
8.08263,242043
8.09002,313378
8.09738,693761
8.10477,1498200
8.11213,1988607
8.11952,1572388
8.12688,1085601
8.13427,1342946
8.14165,1898979
8.14902,2698220
8.1564,4378862
8.16377,5016845
8.17115,6292023
8.17853,6646746
8.1859,2950112
8.19328,1895520
8.20065,3681376
8.20803,5239365
8.2154,4989750
8.22278,3781167
8.23017,4200966
8.23753,3569326
8.24492,2177767
8.25228,866827
8.25967,401656
8.26705,398314
8.27442,335079
8.2818,326207
8.28917,413257
8.29655,508585
8.30392,426874
8.3113,809907
8.31868,2336456
8.32605,3441503
8.33343,1975275
8.3408,596731
8.34818,270899
8.35557,201863
8.36293,367727
8.37032,581118
8.37768,486889
8.38507,380369
8.39243,412812
8.39982,554037
8.4072,956987
8.41457,1327238
8.42195,919609
8.42932,418851
8.4367,288487
8.44408,250724
8.45145,347506
8.45883,894706
8.4662,1770822
8.47358,1619078
8.48095,799709
8.48833,433943
8.49572,397393
8.50308,323207
8.51047,204279
8.51783,192753
8.52522,271227
8.5326,456037
8.53997,548292
8.54735,328595
8.55472,215487
8.5621,294515
8.56947,382319
8.57685,580807
8.58423,1451580
8.5916,2323367
8.59898,2450474
8.60635,1550210
8.61373,486011
8.62112,207485
8.62848,258606
8.63587,390393
8.64323,561055
8.65062,810642
8.65798,891322
8.66537,767108
8.67275,484878
8.68012,401893
8.6875,445934
8.69487,597781
8.70225,788491
8.70962,594694
8.717,445878
8.72438,620478
8.73175,614435
8.73913,626267
8.7465,822702
8.75388,840012
8.76127,1441571
8.76863,2629812
8.77602,2251814
8.78338,774557
8.79077,234279
8.79813,204931
8.80552,344646
8.8129,437979
8.82027,658265
8.82765,885470
8.83502,632476
8.8424,349723
8.84978,271459
8.85715,235451
8.86453,240971
8.8719,338982
8.87928,611250
8.88665,1217425
8.89403,1661490
8.90142,1123835
8.90878,515367
8.91617,321716
8.92353,291223
8.93092,313948
8.9383,545239
8.94567,846411
8.95305,708888
8.96042,333754
8.9678,202948
8.97517,291869
8.98255,356093
8.98993,392509
8.9973,393855
9.00468,354539
9.01205,434167
9.01943,571554
9.02682,591853
9.03418,542611
9.04157,957454
9.04893,2093155
9.05632,2278446
9.06368,849252
9.07107,316139
9.07845,670978
9.08582,775595
9.0932,365209
9.10057,174753
9.10795,235613
9.11533,317710
9.1227,234959
9.13008,130420
9.13745,145497
9.14483,244759
9.1522,396003
9.15958,668943
9.16697,806889
9.17433,637190
9.18172,441487
9.18908,347321
9.19647,268692
9.20385,168070
9.21122,109312
9.2186,96097
9.22597,99060
9.23335,116425
9.24072,324862
9.2481,1428675
9.25548,3867533
9.26285,6381106
9.27023,4198708
9.2776,702807
9.28498,151395
9.29237,116661
9.29973,100758
9.30712,117301
9.31448,127770
9.32187,131365
9.32923,123726
9.33662,125889
9.344,120782
9.35137,129359
9.35875,142153
9.36612,115420
9.3735,96861
9.38087,75812
9.38825,105283
9.39563,476400
9.403,1647681
9.41038,3055490
9.41775,2331371
9.42513,696193
9.43252,165011
9.43988,74262
9.44727,80385
9.45463,97697
9.46202,116610
9.46938,173970
9.47677,182620
9.48415,128472
9.49152,131011
9.4989,219225
9.50627,250825
9.51365,160931
9.52103,86512
9.5284,60670
9.53578,56827
9.54315,63395
9.55053,75746
9.5579,78443
9.56528,79322
9.57267,93898
9.58003,106039
9.58742,123115
9.59478,171445
9.60217,182169
9.60955,130016
9.61692,106689
9.6243,101693
9.63167,92061
9.63905,97216
9.64642,108181
9.6538,131041
9.66118,147369
9.66855,118252
9.67593,93473
9.6833,88735
9.69068,100349
9.69807,111535
9.70543,101521
9.71282,100264
9.72018,89066
9.72757,74166
9.73493,78880
9.74232,91058
9.7497,98954
9.75707,87906
9.76445,64237
9.77182,51361
9.7792,56515
9.78658,58664
9.79395,77436
9.80133,84969
9.8087,72218
9.81608,67804
9.82345,65779
9.83083,80934
9.83822,86812
9.84558,74776
9.85297,72958
9.86033,70555
9.86772,55705
9.8751,57857
9.88247,66893
9.88985,63986
9.89722,59805
9.9046,59202
9.91197,56630
9.91935,57020
9.92673,58994
9.9341,57926
9.94148,63589
9.94885,60248
9.95623,55730
9.9636,53594
9.97098,58786
9.97837,53241
9.98573,44661
9.99312,52368
10.0005,91729
10.0079,135189
10.0153,106083
10.0226,60232
10.03,48023
10.0374,53125
10.0448,57590
10.0521,53936
10.0595,53777
10.0669,76487
10.0743,114755
10.0816,126096
10.089,195093
10.0964,253702
10.1038,158552
10.1111,67288
10.1185,46649
10.1259,50296
10.1333,67699
10.1406,165205
10.148,401413
10.1554,472704
10.1628,287405
10.1702,208276
10.1775,144720
10.1849,73592
10.1923,49761
10.1997,48615
10.207,50235
10.2144,46598
10.2218,42151
10.2292,41750
10.2365,72844
10.2439,255683
10.2513,579731
10.2587,626211
10.266,601965
10.2734,586476
10.2808,283553
10.2882,110095
10.2956,93175
10.3029,82501
10.3103,65877
10.3177,60121
10.3251,54134
10.3324,49647
10.3398,55873
10.3472,54644
10.3546,53530
10.3619,116828
10.3693,466702
10.3767,1083620
10.3841,1236756
10.3914,596994
10.3988,150986
10.4062,136150
10.4136,395614
10.421,592280
10.4283,330393
10.4357,97748
10.4431,59842
10.4505,74934
10.4578,69131
10.4652,51718
10.4726,52761
10.48,64207
10.4873,61755
10.4947,53338
10.5021,47211
10.5095,42268
10.5168,37058
10.5242,32581
10.5316,28342
10.539,31779
10.5463,75882
10.5537,264308
10.5611,490376
10.5685,405684
10.5759,185878
10.5832,145284
10.5906,133495
10.598,73882
10.6054,46096
10.6127,39759
10.6201,39655
10.6275,36790
10.6349,29956
10.6422,28433
10.6496,30735
10.657,32623
10.6644,57018
10.6717,129383
10.6791,199543
10.6865,313341
10.6939,350460
10.7013,199145
10.7086,70956
10.716,38823
10.7234,29156
10.7308,25990
10.7381,26331
10.7455,27951
10.7529,29213
10.7603,27415
10.7676,25277
10.775,23423
10.7824,22928
10.7898,21856
10.7971,21612
10.8045,21292
10.8119,21399
10.8193,19940
10.8267,19187
10.834,18221
10.8414,18197
10.8488,18905
10.8562,20186
10.8635,21682
10.8709,23187
10.8783,21101
10.8857,18837
10.893,18857
10.9004,20557
10.9078,38645
10.9152,100963
10.9225,139062
10.9299,101990
10.9373,56820
10.9447,49416
10.9521,75127
10.9594,86149
10.9668,75665
10.9742,64850
10.9816,39673
10.9889,25018
10.9963,34940
11.0037,81214
11.0111,104675
11.0184,67357
11.0258,37026
11.0332,40287
11.0406,58580
11.0479,48792
11.0553,25968
11.0627,22586
11.0701,33827
11.0774,43412
11.0848,49472
11.0922,85081
11.0996,142444
11.107,158547
11.1143,118529
11.1217,78908
11.1291,66659
11.1365,45971
11.1438,25449
11.1512,21818
11.1586,24964
11.166,46587
11.1733,93127
11.1807,96335
11.1881,53612
11.1955,29009
11.2028,20719
11.2102,32388
11.2176,50943
11.225,42253
11.2324,43735
11.2397,107983
11.2471,161519
11.2545,137850
11.2619,184421
11.2692,252312
11.2766,177077
11.284,76041
11.2914,30309
11.2987,21426
11.3061,37984
11.3135,73198
11.3209,169116
11.3282,245265
11.3356,134090
11.343,43484
11.3504,26297
11.3578,41559
11.3651,61582
11.3725,50582
11.3799,29545
11.3873,19415
11.3946,14194
11.402,13618
11.4094,12912
11.4168,13216
11.4241,16317
11.4315,34536
11.4389,98804
11.4463,159287
11.4536,139054
11.461,62686
11.4684,24085
11.4758,36913
11.4831,106753
11.4905,170751
11.4979,103090
11.5053,35309
11.5127,16109
11.52,12507
11.5274,12408
11.5348,11754
11.5422,11212
11.5495,10779
11.5569,13799
11.5643,35940
11.5717,74602
11.579,77005
11.5864,77566
11.5938,94081
11.6012,73868
11.6085,71003
11.6159,83283
11.6233,51261
11.6307,26018
11.6381,27232
11.6454,33802
11.6528,34469
11.6602,28765
11.6676,25262
11.6749,18019
11.6823,12870
11.6897,12604
11.6971,12491
11.7044,12325
11.7118,16103
11.7192,34823
11.7266,70122
11.7339,77106
11.7413,57840
11.7487,33684
11.7561,24637
11.7635,56590
11.7708,101486
11.7782,87556
11.7856,66739
11.793,78883
11.8003,69387
11.8077,44277
11.8151,35559
11.8225,36600
11.8298,33194
11.8372,20004
11.8446,14810
11.852,31167
11.8593,75809
11.8667,96420
11.8741,63927
11.8815,47621
11.8888,70610
11.8962,80001
11.9036,58007
11.911,34515
11.9184,31992
11.9257,71564
11.9331,128955
11.9405,121532
11.9479,74237
11.9552,45279
11.9626,48293
11.97,62048
11.9774,66558
11.9847,49570
11.9921,28230
11.9995,25534
12.0069,35803
12.0142,42648
12.0216,35359
12.029,23047
12.0364,24096
12.0438,35965
12.0511,51299
12.0585,52880
12.0659,43552
12.0733,44611
12.0806,45548
12.088,43343
12.0954,53877
12.1028,66291
12.1101,51832
12.1175,29919
12.1249,18683
12.1323,17560
12.1396,21314
12.147,20891
12.1544,18427
12.1618,16688
12.1692,14323
12.1765,16922
12.1839,22261
12.1913,24186
12.1987,20026
12.206,15904
12.2134,16129
12.2208,23474
12.2282,31168
12.2355,26267
12.2429,17180
12.2503,14318
12.2577,15245
12.265,21102
12.2724,29611
12.2798,26873
12.2872,18335
12.2945,15236
12.3019,20714
12.3093,26430
12.3167,20710
12.3241,14156
12.3314,12377
12.3388,11977
12.3462,11737
12.3536,13501
12.3609,16253
12.3683,15356
12.3757,13915
12.3831,15203
12.3904,15016
12.3978,13201
12.4052,14362
12.4126,26052
12.4199,44777
12.4273,36921
12.4347,21927
12.4421,20859
12.4495,29314
12.4568,25086
12.4642,14910
12.4716,12103
12.479,12031
12.4863,12310
12.4937,14329
12.5011,14760
12.5085,17508
12.5158,19410
12.5232,24071
12.5306,46168
12.538,69731
12.5453,62998
12.5527,41791
12.5601,31087
12.5675,34733
12.5749,41265
12.5822,39867
12.5896,34273
12.597,29367
12.6044,26052
12.6117,20684
12.6191,19287
12.6265,27805
12.6339,34994
12.6412,29156
12.6486,19865
12.656,18425
12.6634,26117
12.6707,40480
12.6781,42998
12.6855,45342
12.6929,45540
12.7003,42439
12.7076,43012
12.715,32743
12.7224,30781
12.7298,40798
12.7371,37010
12.7445,26023
12.7519,21271
12.7593,20388
12.7666,19421
12.774,20882
12.7814,23974
12.7888,27519
12.7961,30135
12.8035,28404
12.8109,27153
12.8183,23886
12.8256,22506
12.833,21955
12.8404,20810
12.8478,18981
12.8552,16910
12.8625,18934
12.8699,32137
12.8773,40033
12.8847,26982
12.892,15625
12.8994,15798
12.9068,18191
12.9142,19145
12.9215,22040
12.9289,23690
12.9363,20141
12.9437,17527
12.951,18706
12.9584,21197
12.9658,21163
12.9732,20532
12.9806,18843
12.9879,15506
12.9953,13011
13.0027,11429
13.0101,10883
13.0174,10314
13.0248,10932
13.0322,10246
13.0396,9462
13.0469,9601
13.0543,10430
13.0617,11148
13.0691,11179
13.0764,11966
13.0838,11785
13.0912,11104
13.0986,11553
13.106,12840
13.1133,15070
13.1207,18005
13.1281,16806
13.1355,14743
13.1428,12023
13.1502,11529
13.1576,11928
13.165,13359
13.1723,15277
13.1797,15882
13.1871,15819
13.1945,15420
13.2018,12259
13.2092,10149
13.2166,9713
13.224,10397
13.2313,11985
13.2387,15260
13.2461,16599
13.2535,14990
13.2609,12559
13.2682,10430
13.2756,10446
13.283,11617
13.2904,13545
13.2977,14048
13.3051,12718
13.3125,10263
13.3199,13883
13.3272,23069
13.3346,27678
13.342,21703
13.3494,14730
13.3567,11613
13.3641,11569
13.3715,12817
13.3789,13209
13.3863,14082
13.3936,14358
13.401,13368
13.4084,15431
13.4158,18002
13.4231,17153
13.4305,13493
13.4379,11675
13.4453,10472
13.4526,9700
13.46,8844
13.4674,8584
13.4748,8748
13.4821,8673
13.4895,10009
13.4969,15004
13.5043,23269
13.5117,28717
13.519,26901
13.5264,20559
13.5338,15118
13.5412,15477
13.5485,21109
13.5559,21440
13.5633,17247
13.5707,15750
13.578,16908
13.5854,16954
13.5928,15570
13.6002,12272
13.6075,11300
13.6149,12227
13.6223,12101
13.6297,10568
13.637,8992
13.6444,9025
13.6518,10505
13.6592,11471
13.6666,10331
13.6739,9415
13.6813,8904
13.6887,9401
13.6961,10476
13.7034,11925
13.7108,12059
13.7182,10927
13.7256,9712
13.7329,9472
13.7403,10212
13.7477,10131
13.7551,8731
13.7624,7796
13.7698,8550
13.7772,8246
13.7846,7984
13.792,8545
13.7993,8480
13.8067,8909
13.8141,9783
13.8215,9677
13.8288,8965
13.8362,9775
13.8436,8869
13.851,8194
13.8583,8128
13.8657,7758
13.8731,7563
13.8805,7756
13.8878,7475
13.8952,7992
13.9026,8900
13.91,9196
13.9174,8649
13.9247,8676
13.9321,9339
13.9395,10130
13.9469,9284
13.9542,7898
13.9616,7661
13.969,7001
13.9764,7325
13.9837,7202
13.9911,7230
13.9985,7024
14.0059,7289
14.0132,7391
14.0206,7207
14.028,7590
14.0354,7657
14.0427,7619
14.0501,7455
14.0575,7407
14.0649,7450
14.0723,7604
14.0796,7364
14.087,7542
14.0944,7857
14.1018,7823
14.1091,8694
14.1165,11942
14.1239,14443
14.1313,13075
14.1386,11338
14.146,9696
14.1534,10574
14.1608,12979
14.1681,13933
14.1755,11975
14.1829,10687
14.1903,9800
14.1977,8740
14.205,8844
14.2124,8543
14.2198,8821
14.2272,10432
14.2345,12064
14.2419,11797
14.2493,9909
14.2567,8768
14.264,8724
14.2714,8878
14.2788,10078
14.2862,13060
14.2935,14615
14.3009,14119
14.3083,13255
14.3157,12268
14.3231,12458
14.3304,11767
14.3378,9165
14.3452,8590
14.3526,8572
14.3599,8608
14.3673,7960
14.3747,7750
14.3821,7625
14.3894,7566
14.3968,7551
14.4042,7361
14.4116,7097
14.4189,6725
14.4263,6739
14.4337,6875
14.4411,7438
14.4485,7755
14.4558,7799
14.4632,7888
14.4706,7931
14.478,7626
14.4853,7448
14.4927,8323
14.5001,8574
14.5075,7517
14.5148,7255
14.5222,7321
14.5296,7045
14.537,7401
14.5443,7516
14.5517,7441
14.5591,7599
14.5665,8621
14.5738,10006
14.5812,9976
14.5886,8741
14.596,8432
14.6034,8848
14.6107,8197
14.6181,7869
14.6255,6991
14.6329,7116
14.6402,6938
14.6476,6766
14.655,6947
14.6624,7269
14.6697,7456
14.6771,7143
14.6845,7086
14.6919,7183
14.6992,7382
14.7066,7198
14.714,7350
14.7214,7179
14.7288,6910
14.7361,7035
14.7435,6491
14.7509,6457
14.7583,6257
14.7656,6442
14.773,6835
14.7804,6904
14.7878,6987
14.7951,7557
14.8025,8167
14.8099,8307
14.8173,8231
14.8246,8118
14.832,7364
14.8394,7624
14.8468,8060
14.8542,8532
14.8615,8334
14.8689,8031
14.8763,7773
14.8837,7843
14.891,7636
14.8984,7405
14.9058,7239
14.9132,7051
14.9205,6941
14.9279,7190
14.9353,7448
14.9427,8136
14.95,8898
14.9574,9578
14.9648,8851
14.9722,8673
14.9795,7866
14.9869,8615
14.9943,9013
15.0017,8698
15.0091,8437
15.0164,8752
15.0238,7653
15.0312,7962
15.0386,8086
15.0459,8039
15.0533,7983
15.0607,7942
15.0681,8166
15.0754,8333
15.0828,8197
15.0902,7998
15.0976,7587
15.1049,6965
15.1123,7528
15.1197,7332
15.1271,8492
15.1345,8969
15.1418,9265
15.1492,7602
15.1566,8407
15.164,7863
15.1713,7896
15.1787,7596
15.1861,7395
15.1935,7382
15.2008,7905
15.2082,7972
15.2156,8038
15.223,8330
15.2303,7833
15.2377,7564
15.2451,8054
15.2525,8157
15.2599,8019
15.2672,8011
15.2746,8005
15.282,7928
15.2894,7998
15.2967,7817
15.3041,7831
15.3115,7414
15.3189,7731
15.3262,8223
15.3336,8468
15.341,8061
15.3484,8199
15.3557,8028
15.3631,8131
15.3705,8247
15.3779,7989
15.3852,7996
15.3926,7307
15.4,7388
15.4074,7689
15.4148,7620
15.4221,7728
15.4295,7884
15.4369,7864
15.4443,8169
15.4516,8590
15.459,9251
15.4664,9198
15.4738,8586
15.4811,8340
15.4885,8318
15.4959,8255
15.5033,8512
15.5106,8276
15.518,8427
15.5254,8764
15.5328,8432
15.5402,8687
15.5475,8331
15.5549,8435
15.5623,8336
15.5697,8654
15.577,8737
15.5844,8970
15.5918,8924
15.5992,8851
15.6065,9426
15.6139,9736
15.6213,10179
15.6287,11839
15.636,10941
15.6434,11252
15.6508,10935
15.6582,11270
15.6656,12320
15.6729,12310
15.6803,13387
15.6877,13591
15.6951,13949
15.7024,14315
15.7098,14743
15.7172,15225
15.7246,14910
15.7319,14612
15.7393,14309
15.7467,13370
15.7541,13341
15.7614,13989
15.7688,12863
15.7762,12680
15.7836,13096
15.791,13487
15.7983,15539
15.8057,16250
15.8131,15854
15.8205,14571
15.8278,13723
15.8352,13329
15.8426,13468
15.85,14292
15.8573,16505
15.8647,17851
15.8721,18514
15.8795,18890
15.8868,19838
15.8942,19228
15.9016,17598
15.909,18272
15.9163,17122
15.9237,16407
15.9311,16134
15.9385,15217
15.9459,14264
15.9532,13243
15.9606,13149
15.968,12095
15.9754,12180
15.9827,12490
15.9901,12489
15.9975,13038
16.0049,12645
16.0122,11209
16.0196,11278
16.027,10672
16.0344,10782
16.0417,10688
16.0491,10630
16.0565,10819
16.0639,11159
16.0712,11456
16.0786,11095
16.086,11080
16.0934,11295
16.1008,11159
16.1081,10647
16.1155,11138
16.1229,11031
16.1303,10981
16.1376,11004
16.145,10935
16.1524,10681
16.1598,10766
16.1671,10416
16.1745,10212
16.1819,10423
16.1893,10279
16.1967,9433
16.204,10284
16.2114,10187
16.2188,10257
16.2262,10387
16.2335,10467
16.2409,9654
16.2483,10066
16.2556,10182
16.263,10034
16.2704,10096
16.2778,10406
16.2852,9875
16.2925,9927
16.2999,10110
16.3073,9965
16.3147,10052
16.322,10224
16.3294,10176
16.3368,9879
16.3442,10142
16.3516,10363
16.3589,9698
16.3663,9868
16.3737,10073
16.381,10178
16.3884,10143
16.3958,10547
16.4032,10406
16.4106,10125
16.4179,9783
16.4253,10316
16.4327,10281
16.4401,9634
16.4474,10133
16.4548,10039
16.4622,10908
16.4696,11032
16.4769,11360
16.4843,10199
16.4917,10647
16.4991,10530
16.5065,10785
16.5138,11321
16.5212,10833
16.5286,10737
16.536,10232
16.5433,10264
16.5507,10426
16.5581,10026
16.5655,10528
16.5728,10780
16.5802,10360
16.5876,10413
16.595,10168
16.6024,10714
16.6097,9676
16.6171,10246
16.6245,9688
16.6319,10489
16.6392,10509
16.6466,11019
16.654,10746
16.6613,10815
16.6687,11224
16.6761,10864
16.6835,11258
16.6909,10640
16.6982,10773
16.7056,10317
16.713,10469
16.7204,10455
16.7277,9968
16.7351,10145
16.7425,10483
16.7499,10585
16.7572,10450
16.7646,10183
16.772,10906
16.7794,10272
16.7868,11005
16.7941,10390
16.8015,10873
16.8089,10810
16.8163,10843
16.8236,10942
16.831,10715
16.8384,10886
16.8458,10545
16.8531,10917
16.8605,10500
16.8679,10491
16.8753,10775
16.8827,10522
16.89,10490
16.8974,10625
16.9048,10550
16.9122,10514
16.9195,10542
16.9269,10351
16.9343,10602
16.9416,11196
16.949,10929
16.9564,10367
16.9638,10360
16.9712,10295
16.9785,10688
16.9859,10324
16.9933,10487
17.0007,10766
17.0081,10489
17.0154,10534
17.0228,10253
17.0302,10623
17.0376,9866
17.0449,10124
17.0523,10231
17.0597,9851
17.067,10466
17.0744,10266
17.0818,10428
17.0892,10932
17.0966,10180
17.1039,10276
17.1113,10410
17.1187,10189
17.1261,10506
17.1334,10370
17.1408,10098
17.1482,9705
17.1556,10785
17.1629,10640
17.1703,10371
17.1777,10691
17.1851,10239
17.1925,10558
17.1998,10915
17.2072,10722
17.2146,10864
17.222,10765
17.2293,10241
17.2367,10782
17.2441,10161
17.2515,10021
17.2588,9948
17.2662,10777
17.2736,10640
17.281,10537
17.2884,10317
17.2957,10382
17.3031,10455
17.3105,10342
17.3179,10414
17.3252,10536
17.3326,10735
17.34,10290
17.3473,10749
17.3547,10729
17.3621,10172
17.3695,10528
17.3769,10531
17.3842,11020
17.3916,10198
17.399,10434
17.4064,10735
17.4138,10196
17.4211,10581
17.4285,10792
17.4359,10724
17.4433,10937
17.4506,11096
17.458,11119
17.4654,11728
17.4728,11656
17.4801,12023
17.4875,11997
