D:\Data GC-MS-77B\2017\AUGUST\27-08-17\48569-17 SKDM 1 SEC LQ.D 27 Aug 17  04:34 pm
Start of data points
1.29368,13220
1.30043,13135
1.30718,12771
1.31392,13608
1.32067,17365
1.3274,34499
1.33415,179276
1.34088,623757
1.34763,1108468
1.35438,1388485
1.36112,1527815
1.36787,1586702
1.3746,1593474
1.38135,1586232
1.38808,1555493
1.39483,1511215
1.40158,1460842
1.40832,1403094
1.41507,1347581
1.4218,1290554
1.42855,1233143
1.43528,1175257
1.44203,1118941
1.44877,1066920
1.45552,1008643
1.46227,960470
1.469,906822
1.47575,856514
1.48248,808682
1.48923,762755
1.5101,2324077
1.51747,2173262
1.52485,2022653
1.53222,1890536
1.5396,1754656
1.54697,1633474
1.55435,1520279
1.56173,1407077
1.5691,1312659
1.57648,1217393
1.58385,1124058
1.59123,1048151
1.59862,974645
1.60598,903464
1.61337,836024
1.62073,771493
1.62812,717758
1.63548,664897
1.64287,614843
1.65025,569600
1.65762,529160
1.665,487745
1.67237,452775
1.67975,417736
1.68713,386255
1.6945,361135
1.70188,333700
1.70925,309572
1.71663,289785
1.724,267588
1.73138,250428
1.73877,232328
1.74613,214646
1.75352,201378
1.76088,187413
1.76827,174785
1.77565,163312
1.78302,154911
1.7904,142201
1.79777,132951
1.80515,126091
1.81252,116311
1.8199,110240
1.82728,105203
1.83465,97420
1.84203,91536
1.8494,87789
1.85678,82725
1.86417,76768
1.87153,74193
1.87892,69804
1.88628,66619
1.89367,63960
1.90103,61192
1.90842,58499
1.9158,57298
1.92317,55512
1.93055,53600
1.93792,50946
1.9453,49690
1.95268,47944
1.96005,46302
1.96743,44192
1.9748,44265
1.98218,43047
1.98955,40953
1.99693,40521
2.00432,38776
2.01168,37817
2.01907,37317
2.02643,36344
2.03382,35214
2.0412,34399
2.04857,33459
2.05595,34043
2.06332,32840
2.0707,32652
2.07807,31511
2.08545,32202
2.09283,32043
2.1002,31691
2.10758,30763
2.11495,30250
2.12233,29777
2.1297,29656
2.13708,30213
2.14447,28993
2.15183,29968
2.15922,29121
2.16658,29267
2.17397,27690
2.18135,28427
2.18872,29022
2.1961,27653
2.20347,28734
2.21085,28505
2.21822,28504
2.2256,28241
2.23298,28034
2.24035,27687
2.24773,27359
2.2551,27828
2.26248,27089
2.26987,27432
2.27723,27109
2.28462,27512
2.29198,27656
2.29937,27864
2.30673,27467
2.31412,27574
2.3215,26693
2.32887,27205
2.33625,27167
2.34362,26873
2.351,27985
2.35838,26928
2.36575,28006
2.37313,27317
2.3805,26493
2.38788,27137
2.39525,26212
2.40263,27519
2.41002,26958
2.41738,26865
2.42477,27008
2.43213,26468
2.43952,26470
2.4469,27569
2.45427,26969
2.46165,26767
2.46902,27136
2.4764,26607
2.48377,26971
2.49115,27264
2.49853,26954
2.5059,27475
2.51328,27226
2.52065,26896
2.52803,27271
2.53542,27854
2.54278,28287
2.55017,28066
2.55753,27191
2.56492,27825
2.57228,27279
2.57967,27568
2.58705,27624
2.59442,27712
2.6018,27703
2.60917,27481
2.61655,27599
2.62393,27206
2.6313,27343
2.63868,27545
2.64605,28335
2.65343,27806
2.6608,27753
2.66818,28057
2.67557,27842
2.68293,27308
2.69032,27267
2.69768,27548
2.70507,27854
2.71245,27072
2.71982,28130
2.7272,27321
2.73457,27900
2.74195,27633
2.74932,27547
2.7567,26947
2.76408,27418
2.77145,28466
2.77883,27748
2.7862,27604
2.79358,28352
2.80097,27969
2.80833,27445
2.81572,27586
2.82308,28170
2.83047,28021
2.83783,27853
2.84522,28108
2.8526,28811
2.85997,28487
2.86735,28453
2.87472,28896
2.8821,29234
2.88947,28566
2.89685,28445
2.90423,28898
2.9116,28583
2.91898,27811
2.92635,27868
2.93373,27768
2.94112,28653
2.94848,28925
2.95587,27554
2.96323,27861
2.97062,28167
2.97798,28046
2.98537,27430
2.99275,28183
3.00012,27766
3.0075,27845
3.01487,28262
3.02225,28194
3.02963,27830
3.037,28259
3.04438,27890
3.05175,27829
3.05913,27840
3.0665,28006
3.07388,28086
3.08127,29142
3.08863,30157
3.09602,32810
3.10338,34936
3.11077,36619
3.11815,36398
3.12552,35442
3.1329,33617
3.14027,32570
3.14765,31900
3.15502,32123
3.1624,31661
3.16978,31302
3.17715,31119
3.18453,30182
3.1919,30691
3.19928,31305
3.20667,30695
3.21403,32050
3.22142,32043
3.22878,31496
3.23617,30838
3.24353,30732
3.25092,29849
3.2583,30055
3.26567,30881
3.27305,32324
3.28042,32971
3.2878,33088
3.29518,32532
3.30255,31270
3.30993,31690
3.3173,30101
3.32468,30717
3.33205,30275
3.33943,29760
3.34682,29847
3.35418,33023
3.36157,32855
3.36893,33533
3.37632,33449
3.3837,32977
3.39107,30949
3.39845,31690
3.40582,31123
3.4132,30704
3.42057,30346
3.42795,31113
3.43533,29755
3.4427,29725
3.45008,30232
3.45745,29868
3.46483,30021
3.4722,31932
3.47958,33189
3.48697,35264
3.49433,38028
3.50172,38776
3.50908,38815
3.51647,39230
3.52385,43492
3.53122,62314
3.5386,87508
3.54597,103445
3.55335,102855
3.56072,97633
3.5681,88376
3.57548,82491
3.58285,78442
3.59023,73471
3.5976,67421
3.60498,57864
3.61237,55849
3.61973,62314
3.62712,79234
3.63448,87883
3.64187,87604
3.64923,80705
3.65662,68719
3.664,60856
3.67137,52092
3.67875,45231
3.68612,47627
3.6935,66946
3.70088,95935
3.70825,115885
3.71563,122832
3.723,115571
3.73038,100667
3.73775,83643
3.74513,69706
3.75252,57924
3.75988,48831
3.76727,43574
3.77463,39883
3.78202,37464
3.7894,37247
3.79677,42874
3.80415,48750
3.81152,58848
3.8189,62082
3.82627,62059
3.83365,61028
3.84103,66261
3.8484,74063
3.85578,81375
3.86315,79477
3.87053,71187
3.87792,61299
3.88528,51178
3.89267,47898
3.90003,43185
3.90742,42396
3.91478,57180
3.92217,147750
3.92955,328210
3.93692,444122
3.9443,417000
3.95167,321939
3.95905,229245
3.96643,159353
3.9738,115132
3.98118,80800
3.98855,63683
3.99593,54071
4.0033,53084
4.01068,71219
4.01807,101522
4.02543,111332
4.03282,100867
4.04018,84387
4.04757,67279
4.05493,56914
4.06232,51395
4.0697,46365
4.07707,45455
4.08445,47565
4.09182,49420
4.0992,48405
4.10658,46825
4.11395,45583
4.12133,43651
4.1287,42588
4.13608,43106
4.14345,43350
4.15083,44039
4.15822,42647
4.16558,39876
4.17297,38203
4.18033,38065
4.18772,48067
4.1951,65276
4.20247,72640
4.20985,74058
4.21722,71641
4.2246,65504
4.23197,57658
4.23935,51103
4.24673,46948
4.2541,54096
4.26148,94100
4.26885,184476
4.27623,235429
4.28362,202656
4.29098,148745
4.29837,128119
4.30573,135359
4.31312,136990
4.32048,141468
4.32787,157514
4.33525,170174
4.34262,197501
4.35,326468
4.35737,468754
4.36475,473144
4.37213,363189
4.3795,262503
4.38688,249966
4.39425,327462
4.40163,365087
4.409,303677
4.41638,224833
4.42377,181510
4.43113,151245
4.43852,123873
4.44588,109123
4.45327,105648
4.46065,111239
4.46802,97370
4.4754,75352
4.48277,59919
4.49015,56978
4.49752,66633
4.5049,73016
4.51228,79854
4.51965,93168
4.52703,116888
4.5344,127056
4.54178,105387
4.54917,80521
4.55653,74674
4.56392,129952
4.57128,225704
4.57867,262029
4.58603,219360
4.59342,176441
4.6008,227846
4.60817,318539
4.61555,311262
4.62292,246643
4.6303,182628
4.63767,145851
4.64505,130383
4.65243,132059
4.6598,126546
4.66718,105199
4.67455,87273
4.68193,173796
4.68932,484797
4.69668,895709
4.70407,1030758
4.71143,807770
4.71882,475380
4.72618,265051
4.73357,162250
4.74095,102939
4.74832,68676
4.7557,58363
4.76307,82530
4.77045,213941
4.77783,690935
4.7852,1453834
4.79258,1754483
4.79995,1355780
4.80733,838950
4.8147,480649
4.82208,262716
4.82947,159961
4.83683,120651
4.84422,120653
4.85158,165976
4.85897,213735
4.86635,239891
4.87372,238071
4.8811,187338
4.88847,126346
4.89585,105152
4.90322,126327
4.9106,174367
4.91798,172825
4.92535,127650
4.93273,108963
4.9401,166579
4.94748,238993
4.95487,258589
4.96223,303437
4.96962,394013
4.97698,395588
4.98437,320665
4.99173,296000
4.99912,405176
5.0065,508131
5.01387,430248
5.02125,332946
5.02862,335134
5.036,290944
5.04338,214536
5.05075,174785
5.05813,173498
5.0655,248480
5.07288,463568
5.08025,604775
5.08763,478117
5.09502,301436
5.10238,340472
5.10977,1365243
5.11713,3233192
5.12452,3458257
5.1319,1993536
5.13927,814746
5.14665,352644
5.15402,179954
5.1614,103210
5.16877,66530
5.17615,49522
5.18353,44550
5.1909,65428
5.19828,134114
5.20565,217310
5.21303,241330
5.2204,236636
5.22778,310079
5.23517,516098
5.24253,584678
5.24992,415178
5.25728,242654
5.26467,197990
5.27205,215908
5.27942,217059
5.2868,179178
5.29417,121116
5.30155,101725
5.30892,141857
5.3163,184013
5.32368,227167
5.33105,282968
5.33843,270621
5.3458,202683
5.35318,137629
5.36057,102815
5.36793,104830
5.37532,108281
5.38268,125420
5.39007,255966
5.39743,472513
5.40482,573661
5.4122,576659
5.41957,493367
5.42695,342231
5.43432,195136
5.4417,124356
5.44908,165078
5.45645,256154
5.46383,317542
5.4712,305818
5.47858,296795
5.48595,287002
5.49333,256741
5.50072,409066
5.50808,948568
5.51547,1756777
5.52283,2064894
5.53022,1397400
5.5376,704567
5.54497,624460
5.55235,538862
5.55972,350167
5.5671,235396
5.57447,185115
5.58185,187122
5.58923,265786
5.5966,316143
5.60398,384507
5.61135,722425
5.61873,944912
5.62612,646417
5.63348,365923
5.64087,307934
5.64823,328629
5.65562,283138
5.66298,205678
5.67037,197303
5.67775,216533
5.68512,226323
5.6925,187530
5.69987,124701
5.70725,112834
5.71463,153986
5.722,192198
5.72938,205561
5.73675,176130
5.74413,123365
5.7515,127460
5.75888,314262
5.76627,609421
5.77363,696377
5.78102,516634
5.78838,382841
5.79577,413631
5.80313,329217
5.81052,210506
5.8179,346666
5.82527,733286
5.83265,1086670
5.84002,1611648
5.8474,1706720
5.85478,1005327
5.86215,684569
5.86953,1356747
5.8769,2069038
5.88428,1971150
5.89165,1467466
5.89903,1079926
5.90642,965864
5.91378,743632
5.92117,441586
5.92853,227715
5.93592,192993
5.9433,565724
5.95067,1474065
5.95805,1874577
5.96542,1436728
5.9728,759844
5.98017,288241
5.98755,144290
5.99493,181320
6.0023,276479
6.00968,441734
6.01705,568420
6.02443,468262
6.03182,353455
6.03918,377272
6.04657,442101
6.05393,399324
6.06132,282373
6.06868,228933
6.07607,214201
6.08345,232522
6.09082,286730
6.0982,480848
6.10557,705602
6.11295,575550
6.12033,563257
6.1277,851196
6.13508,967361
6.14245,785122
6.14983,557871
6.1572,561280
6.16458,622630
6.17197,567829
6.17933,442291
6.18672,329245
6.19408,301248
6.20147,356528
6.20885,337278
6.21622,260242
6.2236,297123
6.23097,314459
6.23835,229608
6.24572,422762
6.2531,1564860
6.26048,2980309
6.26785,3830366
6.27523,6049160
6.2826,7401948
6.28998,3736565
6.29737,913762
6.30473,354723
6.31212,247364
6.31948,230910
6.32687,340220
6.33423,427109
6.34162,303936
6.349,170867
6.35637,132738
6.36375,102778
6.37112,107879
6.3785,207180
6.38587,308818
6.39325,274430
6.40063,203425
6.408,220824
6.41538,338357
6.42275,386525
6.43013,461456
6.43752,639903
6.44488,649562
6.45227,559538
6.45963,546806
6.46702,484026
6.47438,426124
6.48177,440540
6.48915,407801
6.49652,489594
6.5039,602977
6.51127,524695
6.51865,459688
6.52603,850802
6.5334,2040236
6.54078,2032461
6.54815,823596
6.55553,280501
6.5629,305917
6.57028,552384
6.57767,557832
6.58503,550423
6.59242,1067700
6.59978,1497849
6.60717,1234078
6.61455,773734
6.62192,516741
6.6293,354463
6.63667,233590
6.64405,243763
6.65142,332916
6.6588,451976
6.66618,641300
6.67355,754636
6.68093,887354
6.6883,900591
6.69568,575940
6.70307,468027
6.71043,833597
6.71782,1306462
6.72518,1042008
6.73257,492559
6.73993,341150
6.74732,309811
6.7547,367972
6.76207,434130
6.76945,352887
6.77682,248933
6.7842,220529
6.79158,245784
6.79895,304838
6.80633,320801
6.8137,260184
6.82108,272758
6.82845,386002
6.83583,483748
6.84322,611963
6.85058,647746
6.85797,561154
6.86533,456874
6.87272,525508
6.8801,778224
6.88747,791622
6.89485,809203
6.90222,1125345
6.9096,1226806
6.91697,1319569
6.92435,857392
6.93173,336901
6.9391,498819
6.94648,1208653
6.95385,1575407
6.96123,1067839
6.9686,755973
6.97598,1186626
6.98337,2058661
6.99073,2302154
6.99812,1237934
7.00548,458120
7.01287,445451
7.02025,536962
7.02762,497764
7.035,412164
7.04237,358202
7.04975,435261
7.05712,1124120
7.0645,1726676
7.07188,1112986
7.07925,819720
7.08663,806373
7.094,530843
7.10138,348924
7.10877,327950
7.11613,309912
7.12352,256753
7.13088,231066
7.13827,279467
7.14563,314828
7.15302,273703
7.1604,248516
7.16777,319679
7.17515,428077
7.18252,662002
7.1899,959585
7.19728,850669
7.20465,874741
7.21203,1070199
7.2194,810292
7.22678,521600
7.23415,386729
7.24153,431117
7.24892,758812
7.25628,779063
7.26367,454993
7.27103,539743
7.27842,1049733
7.2858,1100513
7.29317,757015
7.30055,512751
7.30792,435002
7.3153,557666
7.32267,620946
7.33005,485633
7.33743,342644
7.3448,280855
7.35218,367749
7.35955,1259624
7.36693,4358289
7.37432,7113064
7.38168,4509211
7.38907,1231714
7.39643,592670
7.40382,483428
7.41118,486857
7.41857,544818
7.42595,597722
7.43332,541880
7.4407,520210
7.44807,565142
7.45545,477806
7.46283,537070
7.4702,865515
7.47758,1094165
7.48495,859202
7.49233,583344
7.4997,502394
7.50708,527788
7.51447,597313
7.52183,619985
7.52922,549273
7.53658,684378
7.54397,926002
7.55133,885760
7.55872,894586
7.5661,683295
7.57347,355917
7.58085,453654
7.58822,902073
7.5956,1123900
7.60298,838491
7.61035,801220
7.61773,978100
7.6251,744210
7.63248,350159
7.63985,229142
7.64723,321068
7.65462,722257
7.66198,1524892
7.66937,1471528
7.67673,644032
7.68412,316881
7.6915,241898
7.69887,215099
7.70625,195169
7.71362,275882
7.721,407767
7.72837,457705
7.73575,484702
7.74313,467259
7.7505,430383
7.75788,410474
7.76525,638983
7.77263,928364
7.78002,748989
7.78738,646407
7.79477,748516
7.80213,581350
7.80952,468461
7.81688,726894
7.82427,876444
7.83165,611943
7.83902,415891
7.8464,408044
7.85377,433723
7.86115,373457
7.86853,360527
7.8759,543832
7.88328,672001
7.89065,714329
7.89803,706406
7.9054,536017
7.91278,500812
7.92017,582029
7.92753,652047
7.93492,856144
7.94228,960730
7.94967,955610
7.95705,789124
7.96442,467364
7.9718,488022
7.97917,695679
7.98655,1037526
7.99392,1327960
8.0013,1121484
8.00868,1025061
8.01605,873870
8.02343,890984
8.0308,1636501
8.03818,1706714
8.04557,777808
8.05293,493626
8.06032,739016
8.06768,880428
8.07507,641614
8.08243,378965
8.08982,404617
8.0972,743366
8.10457,1317109
8.11195,1221431
8.11932,1037577
8.1267,950637
8.13408,829048
8.14145,761244
8.14883,623534
8.1562,633237
8.16358,633107
8.17095,589748
8.17833,500632
8.18572,461377
8.19308,409266
8.20047,370804
8.20783,428461
8.21522,518312
8.22258,458570
8.22997,334565
8.23735,251896
8.24472,227950
8.2521,294197
8.25947,412108
8.26685,592904
8.27423,651169
8.2816,519058
8.28898,444298
8.29635,705954
8.30373,1091854
8.3111,1120254
8.31848,787284
8.32587,612802
8.33323,609550
8.34062,548169
8.34798,536256
8.35537,609911
8.36275,727465
8.37012,756901
8.3775,851384
8.38487,1584544
8.39225,4321824
8.39962,6003413
8.407,2994374
8.41438,943449
8.42175,625403
8.42913,576673
8.4365,597190
8.44388,607739
8.45127,663094
8.45863,691587
8.46602,636561
8.47338,607538
8.48077,676279
8.48813,660158
8.49552,524134
8.5029,502901
8.51027,540014
8.51765,621976
8.52502,925271
8.5324,1654410
8.53978,1701789
8.54715,960005
8.55453,547857
8.5619,470744
8.56928,521266
8.57665,565413
8.58403,507906
8.59142,528625
8.59878,545745
8.60617,500941
8.61353,586895
8.62092,670948
8.6283,616870
8.63567,504433
8.64305,399338
8.65042,336149
8.6578,333833
8.66517,458014
8.67255,682855
8.67993,759676
8.6873,607732
8.69468,439560
8.70205,449994
8.70943,654941
8.71682,953555
8.72418,864862
8.73157,612640
8.73893,505112
8.74632,461187
8.75368,455751
8.76107,489816
8.76845,628987
8.77582,707831
8.7832,551439
8.79057,387694
8.79795,401482
8.80532,423822
8.8127,381964
8.82008,468865
8.82745,686150
8.83483,957938
8.8422,1036465
8.84958,917276
8.85697,838226
8.86433,678904
8.87172,548245
8.87908,440385
8.88647,446181
8.89383,529620
8.90122,719020
8.9086,865023
8.91597,729963
8.92335,857473
8.93072,1007833
8.9381,767056
8.94548,559976
8.95285,494741
8.96023,606716
8.9676,896224
8.97498,937983
8.98235,666425
8.98973,644076
8.99712,773447
9.00448,832400
9.01187,1108818
9.01923,1185170
9.02662,753743
9.034,645082
9.04137,721615
9.04875,640060
9.05612,423369
9.0635,355555
9.07087,512254
9.07825,988942
9.08563,1268732
9.093,999075
9.10038,1424555
9.10775,1664012
9.11513,1084492
9.12252,795331
9.12988,724523
9.13727,682148
9.14463,542160
9.15202,624282
9.15938,972916
9.16677,995585
9.17415,692039
9.18152,470687
9.1889,438153
9.19627,461337
9.20365,438994
9.21103,466464
9.2184,484191
9.22578,421146
9.23315,363492
9.24053,356097
9.2479,514692
9.25528,705979
9.26267,669768
9.27003,543801
9.27742,552159
9.28478,578183
9.29217,615445
9.29955,699953
9.30692,721196
9.3143,676968
9.32167,615830
9.32905,557835
9.33642,609487
9.3438,1115422
9.35118,3193291
9.35855,5298931
9.36593,3578938
9.3733,1168661
9.38068,658260
9.38805,601187
9.39543,618686
9.40282,564056
9.41018,606914
9.41757,751313
9.42493,780208
9.43232,847498
9.4397,803291
9.44707,624842
9.45445,709078
9.46182,857204
9.4692,804371
9.47657,588305
9.48395,492833
9.49133,527791
9.4987,536252
9.50608,643893
9.51345,768978
9.52083,795865
9.52822,951767
9.53558,908680
9.54297,666641
9.55033,474955
9.55772,441010
9.56508,482795
9.57247,467694
9.57985,428540
9.58722,399066
9.5946,362078
9.60197,362196
9.60935,450479
9.61673,579442
9.6241,675770
9.63148,639750
9.63885,578218
9.64623,616417
9.6536,827631
9.66098,1035252
9.66837,888316
9.67573,764112
9.68312,730113
9.69048,717676
9.69787,650281
9.70525,527272
9.71262,503091
9.72,596578
9.72737,668023
9.73475,718471
9.74212,717781
9.7495,587780
9.75688,466101
9.76425,453534
9.77163,468272
9.779,468971
9.78638,480129
9.79377,544972
9.80113,593862
9.80852,823930
9.81588,1349017
9.82327,1429438
9.83063,879009
9.83802,603639
9.8454,769138
9.85277,794828
9.86015,640538
9.86752,533252
9.8749,541919
9.88228,711001
9.88965,1015269
9.89703,1079441
9.9044,871640
9.91178,783838
9.91915,683542
9.92653,685169
9.93392,1069256
9.94128,1151222
9.94867,761436
9.95603,618580
9.96342,603072
9.97078,537239
9.97817,528687
9.98555,528076
9.99292,618706
10.0003,1080433
10.0077,1321313
10.0151,1018946
10.0224,809717
10.0298,708994
10.0372,632545
10.0446,628829
10.0519,1066990
10.0593,1829785
10.0667,1496127
10.0741,757744
10.0814,489448
10.0888,448433
10.0962,494621
10.1036,510985
10.111,516884
10.1183,556437
10.1257,557915
10.1331,454778
10.1405,408507
10.1478,448009
10.1552,509820
10.1626,572264
10.17,623673
10.1773,651049
10.1847,616431
10.1921,546564
10.1995,568896
10.2068,545530
10.2142,537997
10.2216,659130
10.229,731886
10.2363,690466
10.2437,886811
10.2511,2042765
10.2585,4477124
10.2659,4632718
10.2732,1963934
10.2806,826342
10.288,783747
10.2954,865791
10.3027,843909
10.3101,668525
10.3175,588904
10.3249,585495
10.3322,727252
10.3396,1014540
10.347,1035354
10.3544,941646
10.3617,924375
10.3691,752528
10.3765,633579
10.3839,637643
10.3913,730914
10.3986,864142
10.406,830828
10.4134,608442
10.4208,515668
10.4281,558592
10.4355,544902
10.4429,524927
10.4503,633239
10.4576,678724
10.465,647574
10.4724,590418
10.4798,558074
10.4871,606198
10.4945,645038
10.5019,626381
10.5093,641205
10.5167,615012
10.524,546552
10.5314,576703
10.5388,603282
10.5462,612451
10.5535,669543
10.5609,728037
10.5683,758220
10.5757,718220
10.583,709579
10.5904,768986
10.5978,753920
10.6052,645579
10.6125,635591
10.6199,702076
10.6273,778591
10.6347,727957
10.642,612844
10.6494,653671
10.6568,810389
10.6642,878122
10.6716,942741
10.6789,979931
10.6863,993981
10.6937,1043477
10.7011,881858
10.7084,843924
10.7158,950800
10.7232,938406
10.7306,1057008
10.7379,1069710
10.7453,857182
10.7527,849454
10.7601,979735
10.7674,992322
10.7748,826714
10.7822,749447
10.7896,1067682
10.797,1816434
10.8043,2049667
10.8117,1579643
10.8191,960642
10.8265,761762
10.8338,732304
10.8412,655868
10.8486,616281
10.856,603319
10.8633,807150
10.8707,1179730
10.8781,1029115
10.8855,659382
10.8928,564431
10.9002,588141
10.9076,639214
10.915,673397
10.9224,630422
10.9297,587308
10.9371,551774
10.9445,540569
10.9519,602305
10.9592,709385
10.9666,717423
10.974,682890
10.9814,627781
10.9887,535672
10.9961,572402
11.0035,779686
11.0109,801428
11.0182,648659
11.0256,557082
11.033,536507
11.0404,540162
11.0478,572713
11.0551,660236
11.0625,797594
11.0699,788491
11.0773,697848
11.0846,654754
11.092,671334
11.0994,1180580
11.1068,3159637
11.1141,4764016
11.1215,2965160
11.1289,1214310
11.1363,860356
11.1436,719247
11.151,640661
11.1584,673457
11.1658,694847
11.1731,747200
11.1805,917488
11.1879,987991
11.1953,884169
11.2027,711463
11.21,651904
11.2174,684747
11.2248,762177
11.2322,790149
11.2395,806742
11.2469,766765
11.2543,661946
11.2617,569960
11.269,552422
11.2764,542306
11.2838,571919
11.2912,609219
11.2985,635686
11.3059,665903
11.3133,628430
11.3207,577842
11.3281,575603
11.3354,557776
11.3428,584240
11.3502,663948
11.3576,656460
11.3649,588977
11.3723,538493
11.3797,499566
11.3871,520161
11.3944,578707
11.4018,600763
11.4092,571182
11.4166,527898
11.4239,451444
11.4313,413820
11.4387,441964
11.4461,472797
11.4535,518154
11.4608,527539
11.4682,490300
11.4756,519126
11.483,719513
11.4903,993625
11.4977,971562
11.5051,886678
11.5125,829332
11.5198,660882
11.5272,666346
11.5346,882830
11.542,959501
11.5493,774439
11.5567,694178
11.5641,668875
11.5715,619347
11.5788,740845
11.5862,1032153
11.5936,1024444
11.601,776576
11.6084,566231
11.6157,585724
11.6231,845119
11.6305,996916
11.6379,838652
11.6452,779003
11.6526,864788
11.66,759636
11.6674,632815
11.6747,647234
11.6821,796399
11.6895,1011374
11.6969,889377
11.7042,610191
11.7116,490131
11.719,515449
11.7264,551638
11.7338,584800
11.7411,606823
11.7485,561966
11.7559,553396
11.7633,539499
11.7706,504119
11.778,514333
11.7854,529839
11.7928,506835
11.8001,515689
11.8075,542906
11.8149,549259
11.8223,530188
11.8296,519073
11.837,517271
11.8444,522932
11.8518,565030
11.8592,573928
11.8665,585662
11.8739,539785
11.8813,494367
11.8887,498806
11.896,506917
11.9034,787598
11.9108,2104387
11.9182,3716004
11.9255,2509578
11.9329,980246
11.9403,643416
11.9477,561774
11.955,588745
11.9624,633452
11.9698,714894
11.9772,740972
11.9845,713283
11.9919,689148
11.9993,671748
12.0067,643000
12.0141,611113
12.0214,604043
12.0288,578459
12.0362,577703
12.0436,546507
12.0509,482690
12.0583,487650
12.0657,557545
12.0731,601108
12.0804,559073
12.0878,570004
12.0952,609312
12.1026,562104
12.1099,514479
12.1173,532749
12.1247,545389
12.1321,505453
12.1395,507036
12.1468,537472
12.1542,524451
12.1616,485699
12.169,463552
12.1763,462479
12.1837,505281
12.1911,520068
12.1985,500468
12.2058,461665
12.2132,431291
12.2206,418324
12.228,412662
12.2353,426980
12.2427,452698
12.2501,482261
12.2575,588669
12.2649,734864
12.2722,771674
12.2796,727491
12.287,875348
12.2944,1160658
12.3017,1141026
12.3091,852269
12.3165,728810
12.3239,638239
12.3312,514090
12.3386,474622
12.346,475201
12.3534,508955
12.3607,613429
12.3681,693101
12.3755,570280
12.3829,501599
12.3902,550005
12.3976,677277
12.405,865538
12.4124,841930
12.4198,632384
12.4271,497057
12.4345,468534
12.4419,475256
12.4493,535765
12.4566,579581
12.464,734018
12.4714,724297
12.4788,527649
12.4861,423846
12.4935,442701
12.5009,464274
12.5083,453038
12.5156,439219
12.523,446935
12.5304,457082
12.5378,439309
12.5452,412870
12.5525,410065
12.5599,454132
12.5673,489200
12.5747,490414
12.582,474714
12.5894,478130
12.5968,497447
12.6042,496533
12.6115,497728
12.6189,487194
12.6263,443552
12.6337,424317
12.641,438593
12.6484,450309
12.6558,478477
12.6632,585383
12.6706,1178127
12.6779,2529806
12.6853,2576556
12.6927,1163748
12.7001,505064
12.7074,440853
12.7148,619863
12.7222,1121444
12.7296,1492891
12.7369,1143936
12.7443,728090
12.7517,620121
12.7591,590445
12.7664,567593
12.7738,560997
12.7812,549917
12.7886,523080
12.796,484138
12.8033,440727
12.8107,424192
12.8181,411465
12.8255,421004
12.8328,411872
12.8402,430433
12.8476,459533
12.855,481461
12.8623,477165
12.8697,453074
12.8771,427964
12.8845,423980
12.8918,431203
12.8992,440348
12.9066,431160
12.914,406666
12.9213,395683
12.9287,410210
12.9361,445372
12.9435,494624
12.9509,469209
12.9582,412175
12.9656,390822
12.973,383858
12.9804,373879
12.9877,409467
12.9951,529709
13.0025,657873
13.0099,685496
13.0172,636138
13.0246,594779
13.032,542292
13.0394,458266
13.0467,429647
13.0541,511063
13.0615,594411
13.0689,571782
13.0763,505940
13.0836,435810
13.091,401076
13.0984,483254
13.1058,595001
13.1131,550891
13.1205,438760
13.1279,407436
13.1353,487706
13.1426,648755
13.15,670572
13.1574,562258
13.1648,465835
13.1721,431458
13.1795,457855
13.1869,476315
13.1943,492542
13.2017,595330
13.209,625797
13.2164,473031
13.2238,410777
13.2312,386756
13.2385,382829
13.2459,401352
13.2533,396655
13.2607,381111
13.268,385442
13.2754,409033
13.2828,436167
13.2902,437393
13.2975,409740
13.3049,375533
13.3123,366844
13.3197,395516
13.327,420486
13.3344,421932
13.3418,403704
13.3492,406670
13.3566,393932
13.3639,411178
13.3713,427537
13.3787,418765
13.3861,423198
13.3934,665020
13.4008,1569684
13.4082,2245494
13.4156,1327234
13.4229,535969
13.4303,407991
13.4377,429448
13.4451,449465
13.4524,426167
13.4598,479027
13.4672,628641
13.4746,936019
13.482,1162887
13.4893,934768
13.4967,615339
13.5041,490806
13.5115,428530
13.5188,387905
13.5262,384904
13.5336,389983
13.541,366997
13.5483,364815
13.5557,383362
13.5631,373227
13.5705,365738
13.5778,366467
13.5852,353462
13.5926,354780
13.6,363579
13.6074,376395
13.6147,379224
13.6221,367982
13.6295,342015
13.6369,332883
13.6442,358843
13.6516,404159
13.659,413178
13.6664,393627
13.6737,364477
13.6811,350210
13.6885,370191
13.6959,470249
13.7032,506715
13.7106,477520
13.718,462440
13.7254,452057
13.7327,473981
13.7401,440897
13.7475,366491
13.7549,368295
13.7623,410020
13.7696,431869
13.777,367446
13.7844,354383
13.7918,360453
13.7991,380018
13.8065,431308
13.8139,461138
13.8213,409458
13.8286,376115
13.836,395800
13.8434,462821
13.8508,467901
13.8581,378808
13.8655,360305
13.8729,375635
13.8803,397169
13.8877,371666
13.895,357286
13.9024,452726
13.9098,544426
13.9172,494930
13.9245,393549
13.9319,347576
13.9393,341339
13.9467,332519
13.954,327195
13.9614,344971
13.9688,361186
13.9762,363164
13.9835,374050
13.9909,372331
13.9983,352354
14.0057,349192
14.0131,350515
14.0204,338536
14.0278,327577
14.0352,336700
14.0426,395842
14.0499,470785
14.0573,494657
14.0647,430241
14.0721,369044
14.0794,412455
14.0868,828900
14.0942,1688495
14.1016,1462524
14.1089,687003
14.1163,387297
14.1237,369973
14.1311,358159
14.1384,337055
14.1458,353743
14.1532,366948
14.1606,390157
14.168,406683
14.1753,404361
14.1827,386673
14.1901,380278
14.1975,389940
14.2048,389504
14.2122,366858
14.2196,334774
14.227,330193
14.2343,336926
14.2417,332808
14.2491,334448
14.2565,324064
14.2638,312914
14.2712,332873
14.2786,340512
14.286,316145
14.2934,310062
14.3007,299728
14.3081,321387
14.3155,353516
14.3229,349196
14.3302,326615
14.3376,323711
14.345,351276
14.3524,408132
14.3597,449172
14.3671,434443
14.3745,411461
14.3819,400348
14.3892,399993
14.3966,409897
14.404,364586
14.4114,343725
14.4188,374945
14.4261,389112
14.4335,350061
14.4409,320130
14.4483,312732
14.4556,331450
14.463,384727
14.4704,400797
14.4778,369845
14.4851,361763
14.4925,418263
14.4999,430881
14.5073,356709
14.5146,329711
14.522,340686
14.5294,327567
14.5368,330310
14.5442,395244
14.5515,474974
14.5589,418976
14.5663,345634
14.5737,335797
14.581,373514
14.5884,388573
14.5958,344509
14.6032,327519
14.6105,330754
14.6179,352406
14.6253,359716
14.6327,351540
14.64,332630
14.6474,328787
14.6548,325508
14.6622,320136
14.6695,323695
14.6769,326307
14.6843,318073
14.6917,320919
14.6991,380425
14.7064,693943
14.7138,1343548
14.7212,1192631
14.7286,533553
14.7359,368630
14.7433,344090
14.7507,324581
14.7581,329673
14.7654,334212
14.7728,329569
14.7802,326549
14.7876,334725
14.7949,349061
14.8023,336452
14.8097,323034
14.8171,326990
14.8245,340207
14.8318,348692
14.8392,332432
14.8466,303284
14.854,288537
14.8613,291140
14.8687,287162
14.8761,278929
14.8835,270994
14.8908,276132
14.8982,278687
14.9056,281895
14.913,282545
14.9203,290131
14.9277,327801
14.9351,390006
14.9425,396964
14.9499,367632
14.9572,341304
14.9646,336838
14.972,343837
14.9794,340658
14.9867,295936
14.9941,288345
15.0015,320799
15.0089,320540
15.0162,294193
15.0236,284872
15.031,298801
15.0384,333456
15.0457,328944
15.0531,302127
15.0605,327453
15.0679,364867
15.0752,327048
15.0826,285283
15.09,283445
15.0974,287398
15.1048,283190
15.1121,328419
15.1195,357033
15.1269,351104
15.1343,375275
15.1416,369741
15.149,334093
15.1564,306673
15.1638,321982
15.1711,338929
15.1785,312479
15.1859,301103
15.1933,295543
15.2006,295752
15.208,286178
15.2154,276016
15.2228,268292
15.2302,260134
15.2375,260416
15.2449,286672
15.2523,552917
15.2597,1108851
15.267,866911
15.2744,408668
15.2818,297503
15.2892,281107
15.2965,275867
15.3039,278598
15.3113,289487
15.3187,286731
15.326,276350
15.3334,281664
15.3408,296468
15.3482,308612
15.3556,292285
15.3629,280704
15.3703,277798
15.3777,272311
15.3851,263126
15.3924,260930
15.3998,256247
15.4072,245443
15.4146,243830
15.4219,261993
15.4293,282402
15.4367,283422
15.4441,279677
15.4514,293442
15.4588,311352
15.4662,307681
15.4736,312204
15.4809,295991
15.4883,284615
15.4957,278443
15.5031,249140
15.5105,252465
15.5178,266268
15.5252,259347
15.5326,246286
15.54,244396
15.5473,267960
15.5547,281712
15.5621,257892
15.5695,270679
15.5768,294318
15.5842,262181
15.5916,244108
15.599,253048
15.6063,265183
15.6137,278781
15.6211,299731
15.6285,270538
15.6359,239629
15.6432,250215
15.6506,266530
15.658,255590
15.6654,254464
15.6727,246975
15.6801,251553
15.6875,273436
15.6949,257782
15.7022,231144
15.7096,226063
15.717,226827
15.7244,223066
15.7317,228149
15.7391,367350
15.7465,816672
15.7539,663928
15.7613,319551
15.7686,250370
15.776,240088
15.7834,242392
15.7908,247875
15.7981,244481
15.8055,249505
15.8129,244891
15.8203,231015
15.8276,230529
15.835,241313
15.8424,246894
15.8498,240734
15.8571,233056
15.8645,234719
15.8719,229180
15.8793,223235
15.8866,219460
15.894,216086
15.9014,219016
15.9088,240478
15.9162,284102
15.9235,290333
15.9309,264786
15.9383,243887
15.9457,230945
15.953,235872
15.9604,246134
15.9678,227410
15.9752,230815
15.9825,230875
15.9899,216352
15.9973,211120
16.0047,222523
16.012,233150
16.0194,226816
16.0268,247593
16.0342,249703
16.0416,225113
16.0489,215738
16.0563,217228
16.0637,214743
16.0711,232848
16.0784,232191
16.0858,212419
16.0932,204339
16.1005,204530
16.1079,208344
16.1153,219210
16.1227,211765
16.1301,197984
16.1374,190428
16.1448,189431
16.1522,195033
16.1596,207376
16.167,200211
16.1743,191946
16.1817,221285
16.1891,423678
16.1964,551785
16.2038,329906
16.2112,213628
16.2186,199768
16.226,194201
16.2333,200738
16.2407,205422
16.2481,202905
16.2555,193850
16.2628,190979
16.2702,190920
16.2776,191060
16.285,192277
16.2923,190782
16.2997,188523
16.3071,186665
16.3145,184761
16.3219,176231
16.3292,171200
16.3366,171202
16.344,176321
16.3514,184690
16.3587,201228
16.3661,194717
16.3735,185952
16.3809,182421
16.3882,188139
16.3956,187309
16.403,192213
16.4104,181329
16.4177,181730
16.4251,188450
16.4325,181900
16.4399,168494
16.4473,164346
16.4546,174624
16.462,171931
16.4694,166073
16.4767,171550
16.4841,172370
16.4915,160312
16.4989,156160
16.5063,154975
16.5136,156634
16.521,159292
16.5284,167167
16.5358,160073
16.5431,151973
16.5505,150052
16.5579,148541
16.5653,150673
16.5726,150697
16.58,152913
16.5874,153229
16.5948,148519
16.6022,145593
16.6095,141304
16.6169,141707
16.6243,141942
16.6317,148571
16.639,168060
16.6464,252683
16.6538,326085
16.6612,242499
16.6685,162991
16.6759,144842
16.6833,141073
16.6907,141046
16.698,144197
16.7054,140789
16.7128,135937
16.7202,134572
16.7276,132719
16.7349,131596
16.7423,131916
16.7497,138853
16.7571,139599
16.7644,139879
16.7718,138306
16.7792,135135
16.7866,131930
16.7939,128200
16.8013,126674
16.8087,126653
16.8161,130387
16.8234,138850
16.8308,136322
16.8382,132764
16.8456,127779
16.853,125769
16.8603,125656
16.8677,123877
16.8751,126945
16.8824,123710
16.8898,120523
16.8972,117485
16.9046,120300
16.912,117066
16.9193,113468
16.9267,115508
16.9341,118449
16.9415,121411
16.9488,119060
16.9562,119543
16.9636,123890
16.971,120183
16.9783,117741
16.9857,114458
16.9931,113691
17.0005,114163
17.0079,114382
17.0152,118418
17.0226,118912
17.03,115057
17.0374,112188
17.0447,110322
17.0521,111140
17.0595,109110
17.0669,109163
17.0742,107658
17.0816,109653
17.089,111009
17.0964,112041
17.1038,114066
17.1111,112594
17.1185,108626
17.1259,108915
17.1333,109916
17.1406,132335
17.148,169294
17.1554,175445
17.1627,138444
17.1701,119432
17.1775,112341
17.1849,111507
17.1923,110615
17.1996,110684
17.207,106693
17.2144,105288
17.2218,106141
17.2291,105255
17.2365,104306
17.2439,101644
17.2513,102717
17.2586,102081
17.266,102178
17.2734,102202
17.2808,101186
17.2882,104253
17.2955,103826
17.3029,104983
17.3103,103728
17.3177,105896
17.325,106879
17.3324,110771
17.3398,109618
17.3472,108191
17.3545,109762
17.3619,109773
17.3693,109686
17.3767,110662
17.384,113554
17.3914,112426
17.3988,114986
17.4062,111030
17.4136,109943
17.4209,106979
17.4283,106256
17.4357,104571
17.443,104548
17.4504,104417
17.4578,104308
17.4652,103482
17.4726,103003
17.4799,104790
17.4873,104494
