D:\Data GC-MS-77B\2017\AUGUST\27-08-17\48569-17 SKDM 1 LQ.D 27 Aug 17  04:07 pm
Start of data points
1.29395,13871
1.3007,14157
1.30743,14357
1.31418,14633
1.32093,17788
1.32767,36528
1.33442,268323
1.34115,1162931
1.3479,1897239
1.35463,2616942
1.36138,3346044
1.36813,3702935
1.37487,3757508
1.38162,3637258
1.38835,3438025
1.3951,3213741
1.40183,2985216
1.40858,2756609
1.41532,2540955
1.42207,2357424
1.42882,2208269
1.43555,2073994
1.4423,1966830
1.44903,1877013
1.45578,1794768
1.46252,1730222
1.46927,1679224
1.47602,1627799
1.48275,1586934
1.4895,1548839
1.51035,5015014
1.51773,4873093
1.52512,4719831
1.53248,4537577
1.53987,4359802
1.54723,4197649
1.55462,4024287
1.56198,3829569
1.56937,3629795
1.57675,3460257
1.58412,3269676
1.5915,3076320
1.59887,2901638
1.60625,2730023
1.61363,2550581
1.621,2401983
1.62838,2237890
1.63575,2089423
1.64313,1951346
1.6505,1830136
1.65788,1692400
1.66527,1576572
1.67263,1457655
1.68002,1369982
1.68738,1261967
1.69477,1178369
1.70215,1092499
1.70952,1013766
1.7169,939897
1.72427,875148
1.73165,809789
1.73902,752143
1.7464,694070
1.75378,646598
1.76115,600057
1.76853,560019
1.7759,515902
1.78328,477926
1.79067,444322
1.79803,413206
1.80542,381195
1.81278,354011
1.82017,327744
1.82753,305810
1.83492,283564
1.8423,260269
1.84967,243655
1.85705,227940
1.86442,213264
1.8718,198680
1.87918,185033
1.88655,173374
1.89393,162518
1.9013,156176
1.90868,146315
1.91605,138859
1.92343,133596
1.93082,127178
1.93818,120123
1.94557,114215
1.95293,106788
1.96032,100035
1.9677,95305
1.97507,89844
1.98245,85538
1.98982,82364
1.9972,77332
2.00457,72985
2.01195,69693
2.01933,66639
2.0267,63780
2.03408,60696
2.04145,58054
2.04883,55291
2.05622,53336
2.06358,52016
2.07097,49633
2.07833,49757
2.08572,47355
2.09308,45761
2.10047,45308
2.10785,43031
2.11522,43334
2.1226,42537
2.12997,40803
2.13735,40077
2.14472,39276
2.1521,38552
2.15948,37168
2.16685,37072
2.17423,36323
2.1816,35861
2.18898,36026
2.19637,34975
2.20373,34956
2.21112,34249
2.21848,34210
2.22587,33376
2.23323,33384
2.24062,33247
2.248,33592
2.25537,32341
2.26275,32161
2.27012,32740
2.2775,33058
2.28488,32063
2.29225,32329
2.29963,32264
2.307,31958
2.31438,31929
2.32175,31341
2.32913,30928
2.33652,31904
2.34388,31871
2.35127,30820
2.35863,31796
2.36602,31177
2.3734,31387
2.38077,30894
2.38815,30914
2.39552,30740
2.4029,30382
2.41027,30878
2.41765,31175
2.42503,30752
2.4324,31242
2.43978,31235
2.44715,31233
2.45453,30897
2.46192,30096
2.46928,31226
2.47667,30937
2.48403,30683
2.49142,31003
2.49878,29874
2.50617,30308
2.51355,30508
2.52092,30753
2.5283,31351
2.53567,31234
2.54305,32031
2.55043,33159
2.5578,32590
2.56518,32705
2.57255,32467
2.57993,32503
2.5873,32669
2.59468,31111
2.60207,32847
2.60943,32243
2.61682,31993
2.62418,32786
2.63157,32089
2.63895,32436
2.64632,32010
2.6537,31332
2.66107,31987
2.66845,32540
2.67582,31671
2.6832,31603
2.69058,32522
2.69795,32535
2.70533,32160
2.7127,31672
2.72008,32183
2.72745,32054
2.73483,33105
2.74222,31939
2.74958,32036
2.75697,33081
2.76433,32915
2.77172,33667
2.7791,33040
2.78647,33165
2.79385,32431
2.80122,33450
2.8086,32990
2.81597,32990
2.82335,33206
2.83073,33087
2.8381,33935
2.84548,33383
2.85285,34369
2.86023,33994
2.86762,34503
2.87498,33764
2.88237,33234
2.88973,33308
2.89712,33855
2.90448,33067
2.91187,33592
2.91925,32394
2.92662,33065
2.934,33428
2.94137,33894
2.94875,33294
2.95613,33056
2.9635,32757
2.97088,33358
2.97825,33143
2.98563,33708
2.993,33462
3.00038,33374
3.00777,33171
3.01513,33000
3.02252,33615
3.02988,33270
3.03727,32613
3.04465,33356
3.05202,33854
3.0594,32601
3.06677,33632
3.07415,33673
3.08152,35261
3.0889,36646
3.09628,38487
3.10365,43215
3.11103,44627
3.1184,43066
3.12578,41582
3.13317,41019
3.14053,38592
3.14792,37786
3.15528,37606
3.16267,38553
3.17003,37164
3.17742,37145
3.1848,37038
3.19217,37189
3.19955,36541
3.20692,37572
3.2143,37544
3.22168,38273
3.22905,37856
3.23643,37581
3.2438,36403
3.25118,37095
3.25855,36524
3.26593,36422
3.27332,39003
3.28068,40116
3.28807,38078
3.29543,38753
3.30282,36981
3.31018,36832
3.31757,36484
3.32495,36119
3.33232,36181
3.3397,35231
3.34707,37736
3.35445,38854
3.36183,41690
3.3692,41242
3.37658,40745
3.38395,40069
3.39133,37811
3.3987,38669
3.40608,36413
3.41347,36724
3.42083,36964
3.42822,36805
3.43558,37049
3.44297,37073
3.45035,37008
3.45772,35532
3.4651,36867
3.47247,39123
3.47985,42565
3.48722,44290
3.4946,47396
3.50198,48960
3.50935,48546
3.51673,48769
3.5241,58975
3.53148,93047
3.53887,130443
3.54623,145972
3.55362,145408
3.56098,132234
3.56837,118324
3.57573,111387
3.58312,105834
3.5905,96360
3.59787,84295
3.60525,74348
3.61262,72217
3.62,90023
3.62738,112556
3.63475,120926
3.64213,119328
3.6495,107167
3.65688,92578
3.66425,79248
3.67163,65008
3.67902,58225
3.68638,65263
3.69377,102523
3.70113,154392
3.70852,176387
3.7159,178420
3.72327,164543
3.73065,139875
3.73802,114264
3.7454,91461
3.75277,73813
3.76015,61546
3.76753,55804
3.7749,48584
3.78228,47143
3.78965,51402
3.79703,58681
3.80442,69546
3.81178,83037
3.81917,85327
3.82653,83191
3.83392,86287
3.84128,95584
3.84867,109831
3.85605,118550
3.86342,113209
3.8708,95911
3.87817,79546
3.88555,67897
3.89292,61210
3.9003,56715
3.90768,55512
3.91505,100864
3.92243,294462
3.9298,587733
3.93718,686833
3.94457,606684
3.95193,454630
3.95932,318273
3.96668,219795
3.97407,152851
3.98143,108960
3.98882,83917
3.9962,72387
4.00357,77191
4.01095,116096
4.01832,163248
4.0257,173465
4.03308,148660
4.04045,113131
4.04783,90498
4.0552,77408
4.06258,69496
4.06995,62822
4.07733,62044
4.08472,65700
4.09208,67472
4.09947,65946
4.10683,64316
4.11422,64149
4.1216,59409
4.12897,58845
4.13635,58929
4.14372,61377
4.1511,59738
4.15847,55637
4.16585,51044
4.17323,47696
4.1806,50301
4.18798,70885
4.19535,95418
4.20273,106193
4.21012,105542
4.21748,102253
4.22487,89754
4.23223,79358
4.23962,66038
4.24698,60942
4.25437,80990
4.26175,168611
4.26912,316749
4.2765,364324
4.28387,288830
4.29125,215990
4.29863,198820
4.306,215247
4.31338,213884
4.32075,220443
4.32813,256712
4.3355,276109
4.34288,351005
4.35027,592359
4.35763,783211
4.36502,718360
4.37238,546596
4.37977,400509
4.38715,421583
4.39452,564379
4.4019,577427
4.40927,464197
4.41665,343234
4.42402,271772
4.4314,222143
4.43878,188799
4.44615,166729
4.45353,163746
4.4609,161910
4.46828,137790
4.47567,101730
4.48303,82106
4.49042,83088
4.49778,97540
4.50517,109719
4.51253,121972
4.51992,150004
4.5273,189800
4.53467,195493
4.54205,154452
4.54942,113451
4.5568,118289
4.56417,243344
4.57155,415092
4.57893,428220
4.5863,326328
4.59368,279485
4.60105,400052
4.60843,533109
4.61582,491026
4.62318,369936
4.63057,277164
4.63793,221405
4.64532,207297
4.65268,206572
4.66007,196147
4.66745,154303
4.67482,140592
4.6822,345879
4.68957,952834
4.69695,1568574
4.70433,1656711
4.7117,1196716
4.71908,689792
4.72645,386870
4.73383,230822
4.7412,145539
4.74858,94639
4.75597,86773
4.76333,145927
4.77072,432393
4.77808,1398179
4.78547,2625074
4.79285,2863772
4.80022,2057226
4.8076,1241895
4.81497,673260
4.82235,382521
4.82972,228256
4.8371,176837
4.84448,196521
4.85185,283706
4.85923,355065
4.8666,395854
4.87398,377199
4.88137,288230
4.88873,191039
4.89612,163620
4.90348,220842
4.91087,291113
4.91823,270454
4.92562,188977
4.933,181654
4.94037,294110
4.94775,407558
4.95512,432524
4.9625,537471
4.96988,661235
4.97725,619426
4.98463,510937
4.992,501125
4.99938,725739
5.00675,853686
5.01413,678856
5.02152,542499
5.02888,544733
5.03627,452979
5.04363,328979
5.05102,277018
5.0584,288543
5.06577,465490
5.07315,865917
5.08052,1006902
5.0879,769982
5.09527,458936
5.10265,667804
5.11003,2510772
5.1174,5144301
5.12478,5242249
5.13215,2832820
5.13953,1109640
5.1469,485986
5.15428,261617
5.16167,147216
5.16903,91250
5.17642,68529
5.18378,63932
5.19117,111400
5.19855,243414
5.20592,367868
5.2133,394271
5.22067,395660
5.22805,553312
5.23542,890613
5.2428,941052
5.25018,629611
5.25755,369991
5.26493,312707
5.2723,350963
5.27968,352009
5.28707,279696
5.29443,182019
5.30182,161891
5.30918,232211
5.31657,295696
5.32393,369286
5.33132,451763
5.3387,416696
5.34607,309635
5.35345,202066
5.36082,160650
5.3682,164470
5.37558,168948
5.38295,211859
5.39033,471311
5.3977,832494
5.40508,938138
5.41245,900338
5.41983,756690
5.42722,512422
5.43458,284868
5.44197,200118
5.44933,283200
5.45672,421932
5.4641,506013
5.47147,487447
5.47885,476735
5.48622,443685
5.4936,418663
5.50097,759096
5.50835,1644124
5.51573,2879538
5.5231,3155080
5.53048,2004815
5.53785,1071839
5.54523,983122
5.55262,827194
5.55998,526375
5.56737,367617
5.57473,285449
5.58212,312183
5.58948,430646
5.59687,495494
5.60425,655751
5.61162,1196034
5.619,1435385
5.62637,955588
5.63375,551528
5.64113,484510
5.6485,522461
5.65588,433878
5.66325,308465
5.67063,319134
5.678,338389
5.68538,346615
5.69277,284642
5.70013,185062
5.70752,181592
5.71488,248046
5.72227,312298
5.72963,325498
5.73702,267135
5.7444,181984
5.75177,208355
5.75915,540710
5.76652,998404
5.7739,1099206
5.78128,753426
5.78865,613103
5.79603,684900
5.8034,512158
5.81078,315393
5.81815,555508
5.82553,1196547
5.83292,1764243
5.84028,2556207
5.84767,2548335
5.85503,1446530
5.86242,1081909
5.8698,2196326
5.87717,3202242
5.88455,3171308
5.89192,2256546
5.8993,1702219
5.90667,1516666
5.91405,1103999
5.92143,633802
5.9288,329147
5.93618,298367
5.94355,931038
5.95093,2329480
5.95832,2845572
5.96568,2147746
5.97307,1112534
5.98043,422261
5.98782,210378
5.99518,281570
6.00257,436180
6.00995,698975
6.01732,871247
6.0247,697407
6.03207,539729
6.03945,596281
6.04683,687395
6.0542,611446
6.06158,417233
6.06895,340609
6.07633,321040
6.0837,355492
6.09108,467589
6.09847,831233
6.10583,1102805
6.11322,866582
6.12058,847887
6.12797,1289817
6.13535,1508506
6.14272,1197805
6.1501,857125
6.15747,871082
6.16485,958213
6.17222,857124
6.1796,658668
6.18698,497528
6.19435,456106
6.20173,539962
6.2091,509531
6.21648,392156
6.22387,462678
6.23123,474364
6.23862,339163
6.24598,715278
6.25337,2657736
6.26073,4750940
6.26812,5453240
6.2755,8296881
6.28287,10458713
6.29025,6009783
6.29762,1389841
6.305,507215
6.31237,366472
6.31975,338136
6.32713,524799
6.3345,627814
6.34188,444084
6.34925,247809
6.35663,185764
6.36402,138869
6.37138,155526
6.37877,303445
6.38613,460929
6.39352,416042
6.40088,296842
6.40827,323103
6.41565,508433
6.42302,606950
6.4304,697044
6.43777,974779
6.44515,990447
6.45253,872532
6.4599,857439
6.46728,727989
6.47465,639250
6.48203,642379
6.4894,622055
6.49678,719558
6.50417,893908
6.51153,788929
6.51892,692877
6.52628,1315352
6.53367,3045371
6.54105,3014677
6.54842,1262638
6.5558,426952
6.56317,470088
6.57055,860563
6.57792,840767
6.5853,819547
6.59268,1642765
6.60005,2341231
6.60743,1954568
6.6148,1193018
6.62218,780876
6.62957,514864
6.63693,350974
6.64432,362780
6.65168,505001
6.65907,665780
6.66643,960730
6.67382,1157844
6.6812,1346045
6.68857,1377528
6.69595,884516
6.70332,704505
6.7107,1264608
6.71808,2014284
6.72545,1572914
6.73283,746327
6.7402,522989
6.74758,469673
6.75495,552038
6.76233,677775
6.76972,546912
6.77708,382405
6.78447,329518
6.79183,366328
6.79922,457693
6.8066,490207
6.81397,400734
6.82135,415813
6.82872,589052
6.8361,737885
6.84347,933122
6.85085,999149
6.85823,858944
6.8656,694579
6.87298,809330
6.88035,1186004
6.88773,1233933
6.8951,1280063
6.90248,1719983
6.90987,1897664
6.91723,2039960
6.92462,1253490
6.93198,519877
6.93937,778431
6.94675,1839911
6.95412,2396865
6.9615,1653867
6.96887,1174114
6.97625,1774730
6.98362,3078312
6.991,3576720
6.99838,1915575
7.00575,714285
7.01313,665049
7.0205,824945
7.02788,770481
7.03527,617143
7.04263,539208
7.05002,658253
7.05738,1677810
7.06477,2591324
7.07213,1776333
7.07952,1296460
7.0869,1271401
7.09427,822389
7.10165,542425
7.10902,507027
7.1164,474504
7.12378,386835
7.13115,348229
7.13853,420038
7.1459,488337
7.15328,418113
7.16065,376126
7.16803,476562
7.17542,642901
7.18278,1002050
7.19017,1516680
7.19753,1362616
7.20492,1346105
7.2123,1720738
7.21967,1309699
7.22705,814128
7.23442,591818
7.2418,655155
7.24917,1167229
7.25655,1222129
7.26393,729913
7.2713,835614
7.27868,1639239
7.28605,1752261
7.29343,1181020
7.30082,797842
7.30818,661866
7.31557,881086
7.32293,993368
7.33032,752401
7.33768,519693
7.34507,428903
7.35245,557269
7.35982,1619442
7.3672,5436200
7.37457,10244145
7.38195,7901083
7.38933,2236321
7.3967,921067
7.40408,754399
7.41145,770932
7.41883,830878
7.4262,924852
7.43358,836373
7.44097,797002
7.44833,868575
7.45572,755223
7.46308,812145
7.47047,1308639
7.47783,1720735
7.48522,1393220
7.4926,918689
7.49997,771712
7.50735,819556
7.51472,957041
7.5221,982119
7.52948,849195
7.53685,1058781
7.54423,1441780
7.5516,1386833
7.55898,1385246
7.56635,1090286
7.57373,571566
7.58112,682909
7.58848,1405016
7.59587,1729287
7.60323,1361232
7.61062,1255640
7.618,1548683
7.62537,1213782
7.63275,563654
7.64012,348330
7.6475,478151
7.65487,1095718
7.66225,2361755
7.66963,2396136
7.677,1071774
7.68438,502474
7.69175,377558
7.69913,333299
7.70652,297045
7.71388,413352
7.72127,624448
7.72863,732009
7.73602,759936
7.74338,745390
7.75077,679777
7.75815,645188
7.76552,992795
7.7729,1482882
7.78027,1206977
7.78765,1000097
7.79503,1171069
7.8024,943815
7.80978,769990
7.81715,1146057
7.82453,1404456
7.8319,945211
7.83928,666390
7.84667,639123
7.85403,682092
7.86142,591201
7.86878,561187
7.87617,857553
7.88355,1073435
7.89092,1117560
7.8983,1145289
7.90567,863923
7.91305,796677
7.92042,940426
7.9278,1020697
7.93518,1333207
7.94255,1525769
7.94993,1509575
7.9573,1279006
7.96468,765639
7.97207,763352
7.97943,1077410
7.98682,1583274
7.99418,2079507
8.00157,1844694
8.00893,1646479
8.01632,1439831
8.0237,1378727
8.03107,2517115
8.03845,2759185
8.04582,1348266
8.0532,775864
8.06057,1160997
8.06795,1443668
8.07533,1041195
8.0827,607856
8.09008,630539
8.09745,1119876
8.10483,1995371
8.11222,2083657
8.11958,1719280
8.12697,1547746
8.13433,1345164
8.14172,1221917
8.14908,997659
8.15647,995617
8.16385,1012219
8.17122,944084
8.1786,817929
8.18597,744555
8.19335,662828
8.20073,599355
8.2081,660199
8.21548,830642
8.22285,769402
8.23023,536652
8.2376,403469
8.24498,362921
8.25237,463023
8.25973,652938
8.26712,895819
8.27448,1043703
8.28187,863106
8.28925,716737
8.29662,1108012
8.304,1751291
8.31137,1840299
8.31875,1319095
8.32612,991936
8.3335,973816
8.34088,906965
8.34825,873809
8.35563,988758
8.363,1171645
8.37038,1234686
8.37777,1352158
8.38513,2251216
8.39252,5792476
8.39988,9271249
8.40727,6041796
8.41463,1795450
8.42202,1013652
8.4294,922057
8.43677,964430
8.44415,987495
8.45152,1082360
8.4589,1114360
8.46628,1030775
8.47365,972984
8.48103,1113540
8.4884,1097121
8.49578,851832
8.50315,808144
8.51053,876492
8.51792,1002887
8.52528,1508579
8.53267,2594387
8.54003,2795908
8.54742,1636225
8.5548,906524
8.56217,774426
8.56955,842651
8.57692,932493
8.5843,833362
8.59167,839605
8.59905,885035
8.60643,805696
8.6138,943572
8.62118,1109729
8.62855,1039806
8.63593,852395
8.64332,668767
8.65068,568368
8.65807,553908
8.66543,756599
8.67282,1116758
8.68018,1272211
8.68757,1018907
8.69495,742510
8.70232,731955
8.7097,1037119
8.71707,1569343
8.72445,1480941
8.73182,1027515
8.7392,845911
8.74658,759849
8.75395,765558
8.76133,819303
8.7687,1036817
8.77608,1175202
8.78347,936902
8.79083,651165
8.79822,675167
8.80558,711446
8.81297,626154
8.82033,773150
8.82772,1136238
8.8351,1593625
8.84247,1755889
8.84985,1535924
8.85722,1394514
8.8646,1162345
8.87198,902582
8.87935,728448
8.88673,760821
8.8941,875284
8.90148,1182565
8.90885,1452108
8.91623,1221060
8.92362,1415311
8.93098,1678943
8.93837,1333975
8.94573,960884
8.95312,823151
8.9605,1012496
8.96787,1467135
8.97525,1613028
8.98262,1142336
8.99,1096593
8.99737,1306353
9.00475,1361116
9.01213,1804813
9.0195,2000683
9.02688,1298607
9.03425,1094661
9.04163,1221466
9.04902,1058475
9.05638,715944
9.06377,587674
9.07113,849360
9.07852,1606320
9.08588,2113681
9.09327,1692930
9.10065,2293212
9.10802,2754318
9.1154,1918192
9.12277,1326162
9.13015,1229166
9.13753,1166266
9.1449,927426
9.15228,1056212
9.15965,1639890
9.16703,1688439
9.1744,1176613
9.18178,789063
9.18917,731053
9.19653,777250
9.20392,745672
9.21128,794909
9.21867,812171
9.22605,721996
9.23342,605942
9.2408,607369
9.24817,850295
9.25555,1182731
9.26292,1127035
9.2703,928801
9.27768,941122
9.28505,990424
9.29243,1028970
9.2998,1181215
9.30718,1223630
9.31455,1131669
9.32193,1038699
9.32932,942745
9.33668,1002103
9.34407,1747920
9.35143,4625626
9.35882,7972625
9.3662,6534666
9.37357,2415898
9.38095,1124128
9.38832,1022905
9.3957,1036080
9.40307,943905
9.41045,1026192
9.41783,1277314
9.4252,1315128
9.43258,1445638
9.43995,1376307
9.44733,1074662
9.45472,1186756
9.46208,1466978
9.46947,1339672
9.47683,995257
9.48422,827923
9.49158,881450
9.49897,909377
9.50635,1092242
9.51372,1300574
9.5211,1344441
9.52847,1585489
9.53585,1533242
9.54323,1134309
9.5506,798874
9.55798,731904
9.56535,806648
9.57273,777212
9.5801,695337
9.58748,654906
9.59487,610646
9.60223,593912
9.60962,740127
9.61698,967430
9.62437,1141988
9.63175,1076312
9.63912,967592
9.6465,1023421
9.65387,1369621
9.66125,1759211
9.66862,1516580
9.676,1275061
9.68338,1217750
9.69075,1220178
9.69813,1097916
9.7055,887746
9.71288,829367
9.72027,1000474
9.72763,1101266
9.73502,1228189
9.74238,1195726
9.74977,950642
9.75713,780370
9.76452,747911
9.7719,769006
9.77927,763285
9.78665,800272
9.79402,914040
9.8014,972682
9.80878,1363873
9.81615,2169633
9.82353,2376895
9.8309,1512080
9.83828,995398
9.84565,1252108
9.85303,1373944
9.86042,1087985
9.86778,904273
9.87517,910653
9.88253,1193944
9.88992,1703492
9.89728,1809745
9.90467,1450999
9.91205,1307518
9.91942,1127913
9.9268,1134721
9.93417,1717645
9.94155,1924350
9.94893,1305967
9.9563,1026375
9.96368,1006575
9.97105,894732
9.97843,877066
9.9858,862638
9.99318,1001876
10.0006,1749803
10.0079,2231342
10.0153,1737134
10.0227,1354913
10.0301,1210074
10.0375,1048033
10.0448,1040271
10.0522,1752852
10.0596,2983074
10.067,2531182
10.0743,1266188
10.0817,791460
10.0891,735119
10.0965,817077
10.1038,843702
10.1112,846571
10.1186,906413
10.126,927885
10.1333,749302
10.1407,667869
10.1481,738697
10.1555,832771
10.1628,951671
10.1702,1047455
10.1776,1067893
10.185,1039249
10.1924,928703
10.1997,939722
10.2071,907030
10.2145,891775
10.2219,1096577
10.2292,1218298
10.2366,1133207
10.244,1385985
10.2514,2932741
10.2587,6393527
10.2661,7921521
10.2735,3855257
10.2809,1450796
10.2882,1247448
10.2956,1420749
10.303,1427648
10.3104,1102801
10.3178,970842
10.3251,959578
10.3325,1211204
10.3399,1681318
10.3473,1705489
10.3546,1561158
10.362,1542100
10.3694,1243696
10.3768,1051832
10.3841,1067855
10.3915,1186447
10.3989,1411773
10.4063,1377528
10.4136,993577
10.421,852516
10.4284,921688
10.4358,895064
10.4432,863827
10.4505,1043116
10.4579,1134506
10.4653,1048565
10.4727,957379
10.48,929176
10.4874,993827
10.4948,1053740
10.5022,1030573
10.5095,1064975
10.5169,1014562
10.5243,910389
10.5317,940737
10.539,982442
10.5464,1023055
10.5538,1113338
10.5612,1184102
10.5685,1275189
10.5759,1173586
10.5833,1132216
10.5907,1273112
10.5981,1249145
10.6054,1061779
10.6128,1021872
10.6202,1150885
10.6276,1282411
10.6349,1221749
10.6423,1013361
10.6497,1047407
10.6571,1310126
10.6644,1452608
10.6718,1542165
10.6792,1594255
10.6866,1611471
10.6939,1710782
10.7013,1462554
10.7087,1330552
10.7161,1508273
10.7235,1593668
10.7308,1693763
10.7382,1755254
10.7456,1419584
10.753,1365033
10.7603,1535629
10.7677,1655626
10.7751,1391934
10.7825,1208982
10.7898,1621835
10.7972,2924605
10.8046,3304269
10.812,2595968
10.8193,1620314
10.8267,1244176
10.8341,1197299
10.8415,1069432
10.8489,996629
10.8562,972382
10.8636,1229175
10.871,1851505
10.8784,1738478
10.8857,1109877
10.8931,908920
10.9005,959905
10.9079,1045147
10.9152,1125163
10.9226,1066449
10.93,1006738
10.9374,922718
10.9447,909097
10.9521,1017045
10.9595,1184522
10.9669,1193707
10.9743,1129340
10.9816,1068118
10.989,928692
10.9964,958011
11.0038,1264673
11.0111,1362523
11.0185,1148213
11.0259,971555
11.0333,909864
11.0406,919651
11.048,963859
11.0554,1114669
11.0628,1310238
11.0701,1330102
11.0775,1171067
11.0849,1066959
11.0923,1052462
11.0996,1720946
11.107,4397780
11.1144,7141392
11.1218,5333430
11.1292,2133155
11.1365,1386414
11.1439,1155774
11.1513,1021927
11.1587,1076503
11.166,1101081
11.1734,1183385
11.1808,1439663
11.1882,1593625
11.1955,1421361
11.2029,1175925
11.2103,1044383
11.2177,1093431
11.225,1206935
11.2324,1261983
11.2398,1288437
11.2472,1229015
11.2546,1048889
11.2619,907230
11.2693,868220
11.2767,856847
11.2841,913939
11.2914,969313
11.2988,1005769
11.3062,1066611
11.3136,1010101
11.3209,912067
11.3283,919115
11.3357,908029
11.3431,911648
11.3504,1047781
11.3578,1057230
11.3652,927586
11.3726,850557
11.38,797296
11.3873,806351
11.3947,922875
11.4021,948580
11.4095,902796
11.4168,839531
11.4242,725901
11.4316,645575
11.439,694586
11.4463,737189
11.4537,817622
11.4611,832635
11.4685,776417
11.4758,819071
11.4832,1120794
11.4906,1575708
11.498,1582859
11.5053,1373761
11.5127,1298738
11.5201,1045288
11.5275,1047856
11.5349,1395075
11.5422,1513934
11.5496,1238057
11.557,1095271
11.5644,1063646
11.5717,984121
11.5791,1168685
11.5865,1626286
11.5939,1585021
11.6012,1210617
11.6086,908065
11.616,879495
11.6234,1271285
11.6307,1580628
11.6381,1359006
11.6455,1225758
11.6529,1328711
11.6603,1216943
11.6676,997848
11.675,999672
11.6824,1219011
11.6898,1591754
11.6971,1414111
11.7045,940342
11.7119,778542
11.7193,798991
11.7266,856234
11.734,887776
11.7414,943152
11.7488,880919
11.7561,860968
11.7635,838888
11.7709,782395
11.7783,800901
11.7857,823085
11.793,787385
11.8004,801963
11.8078,845793
11.8152,859556
11.8225,821231
11.8299,802350
11.8373,796878
11.8447,809604
11.852,854481
11.8594,892278
11.8668,902428
11.8742,850034
11.8815,758021
11.8889,762372
11.8963,797802
11.9037,1153901
11.911,3084679
11.9184,5432855
11.9258,4038223
11.9332,1593838
11.9406,980930
11.9479,866125
11.9553,907933
11.9627,954006
11.9701,1073210
11.9774,1143357
11.9848,1105664
11.9922,1050628
11.9996,1025027
12.0069,973004
12.0143,938778
12.0217,915973
12.0291,898515
12.0364,888925
12.0438,826000
12.0512,737830
12.0586,743255
12.066,847262
12.0733,910858
12.0807,854930
12.0881,870774
12.0955,925414
12.1028,862278
12.1102,784102
12.1176,808281
12.125,829064
12.1323,777767
12.1397,764267
12.1471,807203
12.1545,795470
12.1618,741695
12.1692,706896
12.1766,703039
12.184,752340
12.1914,806636
12.1987,775875
12.2061,698754
12.2135,658515
12.2209,635017
12.2282,628354
12.2356,647970
12.243,695011
12.2504,733826
12.2577,855253
12.2651,1098855
12.2725,1169794
12.2799,1086150
12.2872,1307055
12.2946,1762195
12.302,1758659
12.3094,1295885
12.3167,1092454
12.3241,953474
12.3315,768557
12.3389,713788
12.3463,708726
12.3536,757969
12.361,924591
12.3684,1018371
12.3758,866040
12.3831,750925
12.3905,828976
12.3979,1022865
12.4053,1329828
12.4126,1332659
12.42,1014832
12.4274,792307
12.4348,722536
12.4421,723054
12.4495,797954
12.4569,886263
12.4643,1060298
12.4717,1098128
12.479,791657
12.4864,637899
12.4938,647307
12.5012,697918
12.5085,671046
12.5159,656055
12.5233,665166
12.5307,682115
12.538,650989
12.5454,607710
12.5528,608094
12.5602,665744
12.5675,725778
12.5749,718338
12.5823,699232
12.5897,720992
12.5971,744493
12.6044,731503
12.6118,746799
12.6192,724971
12.6266,657285
12.6339,633226
12.6413,643195
12.6487,673606
12.6561,709684
12.6634,841908
12.6708,1639579
12.6782,3538499
12.6856,3899197
12.6929,1792409
12.7003,743019
12.7077,650375
12.7151,909077
12.7225,1622607
12.7298,2162137
12.7372,1735510
12.7446,1093227
12.752,913130
12.7593,874063
12.7667,844902
12.7741,825023
12.7815,829820
12.7888,779700
12.7962,724002
12.8036,660329
12.811,632485
12.8183,615177
12.8257,616440
12.8331,619661
12.8405,639018
12.8478,674125
12.8552,702775
12.8626,705397
12.87,660654
12.8774,643392
12.8847,622467
12.8921,625814
12.8995,648707
12.9069,640784
12.9142,601890
12.9216,583345
12.929,601407
12.9364,664428
12.9437,736903
12.9511,693896
12.9585,602615
12.9659,582169
12.9732,572809
12.9806,544199
12.988,610419
12.9954,801657
13.0028,962306
13.0101,983530
13.0175,940011
13.0249,850605
13.0323,810880
13.0396,673353
13.047,633376
13.0544,754478
13.0618,860349
13.0691,842086
13.0765,758764
13.0839,638924
13.0913,606255
13.0986,709775
13.106,880595
13.1134,797672
13.1208,629668
13.1282,590851
13.1355,699916
13.1429,925204
13.1503,988248
13.1577,833185
13.165,696354
13.1724,624930
13.1798,669088
13.1872,696515
13.1945,712100
13.2019,867537
13.2093,899183
13.2167,707118
13.224,597319
13.2314,564638
13.2388,560151
13.2462,586349
13.2535,573287
13.2609,559814
13.2683,558421
13.2757,589466
13.2831,627915
13.2904,643654
13.2978,603810
13.3052,554034
13.3126,531679
13.3199,565298
13.3273,612425
13.3347,610037
13.3421,592232
13.3494,586174
13.3568,575856
13.3642,582598
13.3716,620154
13.3789,601999
13.3863,615890
13.3937,901547
13.4011,2130027
13.4085,3254641
13.4158,2003773
13.4232,828604
13.4306,588675
13.438,622333
13.4453,639302
13.4527,604298
13.4601,682365
13.4675,916949
13.4748,1370245
13.4822,1691647
13.4896,1340480
13.497,898728
13.5043,702428
13.5117,610532
13.5191,562300
13.5265,554986
13.5339,578720
13.5412,553606
13.5486,543717
13.556,555542
13.5634,538669
13.5707,523542
13.5781,531378
13.5855,529548
13.5929,542541
13.6002,560254
13.6076,544822
13.615,551874
13.6224,536512
13.6297,498015
13.6371,480580
13.6445,513959
13.6519,580824
13.6592,590758
13.6666,568320
13.674,519999
13.6814,491598
13.6888,535057
13.6961,653830
13.7035,735268
13.7109,707011
13.7183,666013
13.7256,649096
13.733,683299
13.7404,640919
13.7478,534136
13.7551,518302
13.7625,590650
13.7699,602633
13.7773,529937
13.7846,506093
13.792,522904
13.7994,557145
13.8068,635533
13.8142,669717
13.8215,584961
13.8289,547906
13.8363,563312
13.8437,674561
13.851,686076
13.8584,561147
13.8658,508647
13.8732,534971
13.8805,568523
13.8879,535241
13.8953,515071
13.9027,632178
13.91,774403
13.9174,705005
13.9248,567429
13.9322,491454
13.9396,492198
13.9469,476539
13.9543,464833
13.9617,486611
13.9691,520762
13.9764,521495
13.9838,532713
13.9912,533413
13.9986,502793
14.0059,496587
14.0133,498463
14.0207,486326
14.0281,466644
14.0354,484118
14.0428,565207
14.0502,692256
14.0576,722664
14.0649,620939
14.0723,530932
14.0797,554338
14.0871,1131184
14.0945,2297697
14.1018,2234494
14.1092,1055331
14.1166,567292
14.124,525679
14.1313,512902
14.1387,480617
14.1461,497443
14.1535,529348
14.1608,554464
14.1682,579671
14.1756,566205
14.183,542222
14.1903,541994
14.1977,557186
14.2051,558236
14.2125,524337
14.2199,479337
14.2272,460887
14.2346,477682
14.242,485338
14.2494,476065
14.2567,452089
14.2641,443682
14.2715,473574
14.2789,477048
14.2862,452599
14.2936,433904
14.301,424630
14.3084,451588
14.3157,493860
14.3231,489549
14.3305,458557
14.3379,456206
14.3453,499743
14.3526,588407
14.36,636548
14.3674,622749
14.3748,591183
14.3821,567930
14.3895,555598
14.3969,570907
14.4043,519719
14.4116,483663
14.419,519039
14.4264,548422
14.4338,493316
14.4411,443672
14.4485,440911
14.4559,499455
14.4633,685822
14.4707,832321
14.478,667045
14.4854,559625
14.4928,617934
14.5002,644384
14.5075,534791
14.5149,489473
14.5223,495906
14.5297,484349
14.537,470073
14.5444,566793
14.5518,689778
14.5592,632272
14.5665,517060
14.5739,485618
14.5813,533812
14.5887,570029
14.596,523517
14.6034,497689
14.6108,513282
14.6182,513544
14.6256,519704
14.6329,500871
14.6403,479789
14.6477,472129
14.6551,463833
14.6624,450371
14.6698,457773
14.6772,452514
14.6846,446632
14.6919,450446
14.6993,535759
14.7067,980451
14.7141,2005590
14.7214,1785376
14.7288,864407
14.7362,594690
14.7436,528171
14.751,477865
14.7583,479177
14.7657,497187
14.7731,480777
14.7805,474034
14.7878,486543
14.7952,499069
14.8026,497347
14.81,478246
14.8173,480002
14.8247,497866
14.8321,511997
14.8395,500453
14.8468,453283
14.8542,441066
14.8616,443919
14.869,434943
14.8764,417057
14.8837,411613
14.8911,415196
14.8985,416584
14.9059,420746
14.9132,433057
14.9206,445196
14.928,491060
14.9354,574396
14.9427,606005
14.9501,549845
14.9575,516426
14.9649,499051
14.9722,509161
14.9796,520132
14.987,464576
14.9944,437681
15.0017,475351
15.0091,474324
15.0165,441087
15.0239,429952
15.0313,452599
15.0386,509362
15.046,506241
15.0534,449247
15.0608,472089
15.0681,542617
15.0755,502322
15.0829,427756
15.0903,424883
15.0976,431607
15.105,427558
15.1124,473435
15.1198,553024
15.1271,528988
15.1345,550460
15.1419,559829
15.1493,507113
15.1567,456726
15.164,476769
15.1714,508328
15.1788,474892
15.1862,451976
15.1935,450019
15.2009,453093
15.2083,441147
15.2157,426757
15.223,417376
15.2304,395975
15.2378,397148
15.2452,429346
15.2525,724048
15.2599,1598422
15.2673,1497864
15.2747,674723
15.2821,455811
15.2894,421030
15.2968,416848
15.3042,423106
15.3116,441492
15.3189,446415
15.3263,424554
15.3337,438078
15.3411,469641
15.3484,492147
15.3558,472891
15.3632,452776
15.3706,451616
15.3779,446692
15.3853,431670
15.3927,424392
15.4001,414149
15.4074,398527
15.4148,402938
15.4222,443708
15.4296,497119
15.437,501010
15.4443,482014
15.4517,512700
15.4591,564863
15.4665,561559
15.4738,548301
15.4812,524410
15.4886,486788
15.496,486495
15.5033,442292
15.5107,429154
15.5181,450744
15.5255,436179
15.5328,414892
15.5402,408896
15.5476,443260
15.555,477264
15.5624,452643
15.5697,469959
15.5771,518484
15.5845,470348
15.5919,432103
15.5992,442625
15.6066,450845
15.614,455256
15.6214,498398
15.6287,456830
15.6361,399440
15.6435,404233
15.6509,432723
15.6582,423400
15.6656,413558
15.673,405923
15.6804,417721
15.6878,453949
15.6951,425093
15.7025,382121
15.7099,365188
15.7173,364456
15.7246,361558
15.732,366073
15.7394,571892
15.7468,1198296
15.7541,1141994
15.7615,552584
15.7689,396598
15.7763,375667
15.7836,381081
15.791,393315
15.7984,389081
15.8058,387342
15.8131,383723
15.8205,365909
15.8279,357782
15.8353,379570
15.8427,392004
15.85,377767
15.8574,365612
15.8648,368223
15.8722,352133
15.8795,345370
15.8869,346869
15.8943,345467
15.9017,339107
15.909,369971
15.9164,450260
15.9238,475996
15.9312,419349
15.9385,384654
15.9459,373635
15.9533,370260
15.9607,388451
15.9681,355371
15.9754,355470
15.9828,361284
15.9902,337450
15.9976,334092
16.0049,346848
16.0123,369950
16.0197,359623
16.027,389505
16.0344,396397
16.0418,349848
16.0492,326005
16.0566,328981
16.0639,332574
16.0713,356969
16.0787,365500
16.0861,330456
16.0935,320136
16.1008,336325
16.1082,343945
16.1156,343660
16.1229,324706
16.1303,305064
16.1377,295603
16.1451,297408
16.1525,308237
16.1598,323021
16.1672,314166
16.1746,304860
16.182,348344
16.1893,613254
16.1967,911569
16.2041,589682
16.2115,357748
16.2189,315020
16.2262,306108
16.2336,303177
16.241,315072
16.2483,305316
16.2557,293721
16.2631,288679
16.2705,290594
16.2779,295915
16.2852,303606
16.2926,299582
16.3,296551
16.3074,291834
16.3147,286018
16.3221,275677
16.3295,270384
16.3369,273198
16.3442,280668
16.3516,305195
16.359,320991
16.3664,302454
16.3738,283189
16.3811,276769
16.3885,274693
16.3959,272205
16.4033,277352
16.4106,257692
16.418,250701
16.4254,262060
16.4327,257593
16.4401,239478
16.4475,235590
16.4549,245128
16.4623,255973
16.4696,258170
16.477,264342
16.4844,266315
16.4918,250221
16.4992,246012
16.5065,240659
16.5139,244071
16.5213,247334
16.5286,265970
16.536,258339
16.5434,235388
16.5508,228420
16.5582,224382
16.5655,223722
16.5729,231679
16.5803,235005
16.5877,234997
16.595,230504
16.6024,223967
16.6098,224498
16.6172,227748
16.6245,231153
16.6319,243302
16.6393,269501
16.6467,410193
16.6541,556627
16.6614,397889
16.6688,268289
16.6762,239048
16.6836,227946
16.6909,226867
16.6983,227444
16.7057,224362
16.7131,217681
16.7204,216003
16.7278,208832
16.7352,208216
16.7426,214237
16.7499,226912
16.7573,236711
16.7647,231529
16.7721,221623
16.7795,208765
16.7868,196636
16.7942,189800
16.8016,188966
16.8089,190481
16.8163,207116
16.8237,218956
16.8311,216854
16.8385,208270
16.8458,201530
16.8532,199033
16.8606,199918
16.868,198904
16.8753,197348
16.8827,193663
16.8901,188755
16.8975,186882
16.9049,186529
16.9122,181766
16.9196,177628
16.927,178708
16.9343,180734
16.9417,186372
16.9491,184198
16.9565,186439
16.9639,188995
16.9712,184141
16.9786,178431
16.986,178419
16.9934,176100
17.0007,174545
17.0081,181069
17.0155,183574
17.0229,185260
17.0302,174233
17.0376,174083
17.045,176230
17.0524,173313
17.0598,174856
17.0671,174870
17.0745,173783
17.0819,179846
17.0893,213183
17.0966,318106
17.104,404220
17.1114,323598
17.1188,220219
17.1261,183132
17.1335,183072
17.1409,221884
17.1483,287413
17.1556,287616
17.163,225695
17.1704,183112
17.1778,173171
17.1852,169864
17.1925,169382
17.1999,169546
17.2073,167901
17.2146,168165
17.222,172672
17.2294,178559
17.2368,182347
17.2442,193282
17.2515,209984
17.2589,222790
17.2663,233446
17.2737,239281
17.281,241686
17.2884,241019
17.2958,235389
17.3032,221843
17.3105,201067
17.3179,186279
17.3253,182339
17.3327,180119
17.3401,179070
17.3474,178440
17.3548,178115
17.3622,175274
17.3696,176468
17.3769,173822
17.3843,174210
17.3917,174019
17.3991,171764
17.4064,166321
17.4138,164858
17.4212,164096
17.4286,165458
17.4359,164160
17.4433,160475
17.4507,160530
17.4581,160670
17.4655,163701
17.4728,165783
17.4802,167097
17.4876,174826
