D:\Data GC-MS-77B\2017\SEPTEMBER\03-09-17\48642-17-2-YA-SEC.D 03 Sep 17  04:22 pm
Start of data points
1.29392,9964
1.30067,10248
1.3074,10517
1.31415,11016
1.3209,99580
1.32763,1628498
1.33438,6059502
1.34112,6176538
1.34787,6110012
1.3546,6070490
1.36135,6093507
1.3681,6122864
1.37483,6144316
1.38158,6201725
1.38832,6204429
1.39507,6230271
1.4018,6248534
1.40855,6268144
1.41528,6284016
1.42203,6313906
1.42878,6359189
1.43552,6383230
1.44227,6404359
1.449,6431329
1.45575,6432308
1.46248,6413373
1.46923,6364646
1.47598,6282022
1.48272,6179026
1.48947,6013785
1.51032,15417502
1.5177,14487670
1.52508,13455022
1.53245,12343930
1.53983,11291823
1.5472,10333382
1.55458,9455343
1.56195,8698978
1.56933,8060399
1.57672,7593110
1.58408,7200527
1.59147,6881677
1.59883,6658560
1.60622,6427304
1.6136,6315555
1.62097,6179803
1.62835,6049811
1.63572,5924046
1.6431,5812295
1.65047,5668805
1.65785,5532879
1.66523,5366707
1.6726,5237139
1.67998,5073380
1.68735,4897354
1.69473,4720796
1.70212,4508718
1.70948,4325057
1.71687,4105783
1.72423,3875854
1.73162,3662031
1.73898,3440957
1.74637,3236895
1.75375,3064385
1.76112,2899865
1.7685,2699768
1.77587,2561269
1.78325,2377347
1.79063,2247791
1.798,2079830
1.80538,1938126
1.81275,1805448
1.82013,1653976
1.8275,1525643
1.83488,1484611
1.84227,1370938
1.84963,1266583
1.85702,1166574
1.86438,1060485
1.87177,994982
1.87915,920748
1.88652,837379
1.8939,778018
1.90127,711872
1.90865,687625
1.91602,631189
1.9234,581561
1.93078,536272
1.93815,494151
1.94553,453681
1.9529,444409
1.96028,410914
1.96767,380350
1.97503,349880
1.98242,326907
1.98978,301187
1.99717,278416
2.00453,250621
2.01192,234967
2.0193,221224
2.02667,206792
2.03405,192185
2.04142,178355
2.0488,167985
2.05618,161480
2.06355,148823
2.07093,137126
2.0783,128455
2.08568,121575
2.09305,120423
2.10043,113885
2.10782,108324
2.11518,101241
2.12257,96717
2.12993,92406
2.13732,86682
2.14468,85077
2.15207,79419
2.15945,76639
2.16682,72601
2.1742,70360
2.18157,65566
2.18895,64047
2.19633,62283
2.2037,60479
2.21108,57164
2.21845,55743
2.22583,55204
2.2332,51724
2.24058,51965
2.24797,52617
2.25533,49944
2.26272,48452
2.27008,47724
2.27747,46386
2.28485,47363
2.29222,44377
2.2996,42091
2.30697,44213
2.31435,44964
2.32172,44723
2.3291,43561
2.33648,42343
2.34385,40501
2.35123,41799
2.3586,41611
2.36598,40363
2.37337,39049
2.38073,38047
2.38812,40282
2.39548,40973
2.40287,36662
2.41023,39727
2.41762,36516
2.425,36052
2.43237,37344
2.43975,35245
2.44712,36003
2.4545,35020
2.46188,34811
2.46925,36312
2.47663,36806
2.484,39510
2.49138,38810
2.49875,39102
2.50613,38710
2.51352,38657
2.52088,39193
2.52827,37219
2.53563,38555
2.54302,37684
2.5504,38150
2.55777,36782
2.56515,35890
2.57252,34737
2.5799,33482
2.58727,35773
2.59465,33917
2.60203,34526
2.6094,34034
2.61678,33039
2.62415,32860
2.63153,34354
2.63892,34822
2.64628,33635
2.65367,32717
2.66103,33620
2.66842,32506
2.67578,32712
2.68317,32344
2.69055,30838
2.69792,30649
2.7053,32636
2.71267,31816
2.72005,31519
2.72742,32789
2.7348,32045
2.74218,31614
2.74955,31226
2.75693,31940
2.7643,32939
2.77168,33348
2.77907,32852
2.78643,34008
2.79382,32562
2.80118,33320
2.80857,33650
2.81593,33766
2.82332,33231
2.8307,32233
2.83807,33346
2.84545,32900
2.85282,33047
2.8602,33147
2.86758,34197
2.87495,33031
2.88233,31936
2.8897,32762
2.89708,32706
2.90445,32418
2.91183,32349
2.91922,33093
2.92658,32727
2.93397,32238
2.94133,32270
2.94872,31708
2.9561,32240
2.96347,32905
2.97085,32991
2.97822,31952
2.9856,33479
2.99297,32135
3.00035,32175
3.00773,31790
3.0151,31824
3.02248,32771
3.02985,32984
3.03723,31769
3.04462,32758
3.05198,31804
3.05937,32975
3.06673,32630
3.07412,31719
3.08148,31925
3.08887,32163
3.09625,32725
3.10362,32714
3.111,34350
3.11837,38492
3.12575,34525
3.13313,32578
3.1405,33384
3.14788,37293
3.15525,38535
3.16263,38120
3.17,36992
3.17738,35526
3.18477,35798
3.19213,36481
3.19952,38198
3.20688,37648
3.21427,38042
3.22165,37609
3.22902,37150
3.2364,37206
3.24377,37207
3.25115,35935
3.25852,36853
3.2659,36318
3.27328,37290
3.28065,36561
3.28803,36366
3.2954,38807
3.30278,38988
3.31015,38210
3.31753,37975
3.32492,38435
3.33228,37542
3.33967,36582
3.34703,37543
3.35442,37489
3.3618,38462
3.36917,35996
3.37655,37895
3.38392,38374
3.3913,37948
3.39867,37923
3.40605,39508
3.41343,37668
3.4208,37178
3.42818,37723
3.43555,37340
3.44293,37212
3.45032,37022
3.45768,37732
3.46507,37094
3.47243,37510
3.47982,36783
3.48718,37643
3.49457,37132
3.50195,37380
3.50932,39267
3.5167,39696
3.52407,39314
3.53145,41104
3.53883,39964
3.5462,40568
3.55358,39977
3.56095,41190
3.56833,41538
3.5757,43339
3.58308,43508
3.59047,42973
3.59783,42960
3.60522,40866
3.61258,42020
3.61997,41777
3.62735,41724
3.63472,40963
3.6421,40373
3.64947,39700
3.65685,40690
3.66422,40931
3.6716,40387
3.67898,40158
3.68635,41287
3.69373,40121
3.7011,42448
3.70848,41115
3.71587,41428
3.72323,42139
3.73062,41399
3.73798,39917
3.74537,40073
3.75273,39985
3.76012,39660
3.7675,39836
3.77487,39511
3.78225,39701
3.78962,39602
3.797,39891
3.80438,40109
3.81175,39998
3.81913,40396
3.8265,40832
3.83388,39957
3.84125,40152
3.84863,42440
3.85602,41468
3.86338,41988
3.87077,41405
3.87813,40762
3.88552,40395
3.89288,40505
3.90027,40121
3.90765,42117
3.91502,45187
3.9224,52227
3.92977,53530
3.93715,53223
3.94453,51094
3.9519,47854
3.95928,45964
3.96665,43565
3.97403,42327
3.9814,42339
3.98878,40817
3.99617,42521
4.00353,40865
4.01092,41096
4.01828,39036
4.02567,40147
4.03305,38977
4.04042,41642
4.0478,39245
4.05517,37679
4.06255,37555
4.06992,38340
4.0773,36714
4.08468,38339
4.09205,37650
4.09943,37395
4.1068,37721
4.11418,38301
4.12157,37593
4.12893,41203
4.13632,43468
4.14368,43232
4.15107,44782
4.15843,42383
4.16582,40889
4.1732,38150
4.18057,37842
4.18795,39716
4.19532,40241
4.2027,40376
4.21008,38751
4.21745,35184
4.22483,34788
4.2322,33517
4.23958,32899
4.24695,33416
4.25433,36011
4.26172,43969
4.26908,46839
4.27647,42441
4.28383,40709
4.29122,36387
4.2986,36025
4.30597,34827
4.31335,37715
4.32072,37935
4.3281,36348
4.33547,38073
4.34285,44119
4.35023,51061
4.3576,51778
4.36498,50707
4.37235,45958
4.37973,46701
4.38712,51073
4.39448,55349
4.40187,52875
4.40923,49501
4.41662,46627
4.42398,43612
4.43137,42355
4.43875,40152
4.44612,39298
4.4535,38755
4.46087,37073
4.46825,36716
4.47562,35676
4.483,34323
4.49038,34141
4.49775,34722
4.50513,34869
4.5125,35573
4.51988,38676
4.52727,38742
4.53463,38087
4.54202,37251
4.54938,35740
4.55677,36074
4.56413,42852
4.57152,46418
4.5789,44537
4.58627,43535
4.59365,46681
4.60102,53648
4.6084,57719
4.61578,53702
4.62315,47635
4.63053,43822
4.6379,39883
4.64528,40446
4.65265,39799
4.66003,38589
4.66742,36642
4.67478,39433
4.68217,53970
4.68953,83666
4.69692,107668
4.7043,107103
4.71167,87760
4.71905,63722
4.72642,49331
4.7338,41582
4.74117,37376
4.74855,36018
4.75593,36502
4.7633,43065
4.77068,61871
4.77805,115325
4.78543,159194
4.79282,160729
4.80018,127189
4.80757,88393
4.81493,66455
4.82232,50734
4.82968,45984
4.83707,43863
4.84445,44583
4.85182,49023
4.8592,49665
4.86657,49970
4.87395,46213
4.88133,42804
4.8887,39255
4.89608,39566
4.90345,39954
4.91083,39828
4.9182,39589
4.92558,37805
4.93297,38828
4.94033,44390
4.94772,49480
4.95508,53689
4.96247,63229
4.96985,65875
4.97722,63585
4.9846,59423
4.99197,64686
4.99935,84053
5.00672,85470
5.0141,77837
5.02148,72840
5.02885,74370
5.03623,64403
5.0436,57913
5.05098,52927
5.05835,52267
5.06573,64039
5.07312,90575
5.08048,99857
5.08787,85114
5.09523,69671
5.10262,125213
5.11,357951
5.11737,594898
5.12475,519314
5.13212,312212
5.1395,159991
5.14687,99241
5.15425,69487
5.16163,53086
5.169,44610
5.17638,41250
5.18375,39768
5.19113,41030
5.19852,50596
5.20588,61504
5.21327,67680
5.22063,67301
5.22802,77094
5.23538,95304
5.24277,92671
5.25015,73929
5.25752,63291
5.2649,62563
5.27227,60676
5.27965,60805
5.28703,54496
5.2944,48887
5.30178,48005
5.30915,53360
5.31653,64885
5.3239,81019
5.33128,90589
5.33867,79854
5.34603,64383
5.35342,54934
5.36078,53115
5.36817,54809
5.37555,52200
5.38292,60279
5.3903,99959
5.39767,137780
5.40505,148401
5.41242,143659
5.4198,119607
5.42718,87181
5.43455,61862
5.44193,53613
5.4493,65426
5.45668,88027
5.46407,101417
5.47143,97388
5.47882,97484
5.48618,91085
5.49357,84150
5.50093,128642
5.50832,254775
5.5157,403938
5.52307,409393
5.53045,269525
5.53782,173672
5.5452,169537
5.55258,146913
5.55995,111926
5.56733,91816
5.5747,80304
5.58208,79317
5.58945,90219
5.59683,98384
5.60422,123176
5.61158,196767
5.61897,217397
5.62633,158364
5.63372,110523
5.64108,99207
5.64847,97882
5.65585,93897
5.66322,77730
5.6706,74321
5.67797,74760
5.68535,74135
5.69273,65324
5.7001,57612
5.70748,61947
5.71485,77366
5.72223,80584
5.7296,76760
5.73698,65811
5.74437,55241
5.75173,65574
5.75912,116131
5.76648,177885
5.77387,191481
5.78125,143244
5.78862,103102
5.796,95866
5.80337,81637
5.81075,72831
5.81812,123009
5.8255,221871
5.83288,325094
5.84025,432681
5.84763,388165
5.855,229120
5.86238,206919
5.86977,373791
5.87713,453784
5.88452,370927
5.89188,254807
5.89927,179527
5.90663,157457
5.91402,136807
5.9214,104792
5.92877,78815
5.93615,82343
5.94352,169910
5.9509,354891
5.95828,453941
5.96565,357371
5.97303,212660
5.9804,112832
5.98778,75106
5.99515,88999
6.00253,109221
6.00992,151485
6.01728,175118
6.02467,146218
6.03203,122418
6.03942,132946
6.0468,149702
6.05417,139125
6.06155,110795
6.06892,95961
6.0763,85011
6.08367,80376
6.09105,89487
6.09843,123099
6.1058,156569
6.11318,150037
6.12055,183693
6.12793,258313
6.13532,271536
6.14268,218717
6.15007,179516
6.15743,193757
6.16482,199474
6.17218,176204
6.17957,148020
6.18695,119544
6.19432,101632
6.2017,102854
6.20907,102887
6.21645,98783
6.22383,108015
6.2312,103251
6.23858,83700
6.24595,134717
6.25333,379764
6.2607,728185
6.26808,1118562
6.27547,2032344
6.28283,2099978
6.29022,918968
6.29758,264194
6.30497,130305
6.31235,100011
6.31972,87694
6.3271,100537
6.33447,117515
6.34185,96670
6.34922,74510
6.3566,69184
6.36398,59379
6.37135,62596
6.37873,89498
6.3861,110552
6.39348,97933
6.40085,76124
6.40823,85376
6.41562,119145
6.42298,137344
6.43037,165818
6.43773,205403
6.44512,192089
6.4525,154104
6.45987,139201
6.46725,136319
6.47462,127873
6.482,121439
6.48937,120852
6.49675,145514
6.50413,175631
6.5115,152328
6.51888,136457
6.52625,277011
6.53363,617254
6.54102,564315
6.54838,244732
6.55577,100750
6.56313,93020
6.57052,133086
6.57788,145112
6.58527,175224
6.59265,326359
6.60002,459232
6.6074,365784
6.61477,225681
6.62215,161352
6.62953,120224
6.6369,87312
6.64428,88851
6.65165,106641
6.65903,125547
6.6664,178576
6.67378,206324
6.68117,275520
6.68853,293759
6.69592,183918
6.70328,140737
6.71067,219082
6.71805,290607
6.72542,239801
6.7328,130440
6.74017,114651
6.74755,106925
6.75492,131796
6.7623,156507
6.76968,130294
6.77705,93796
6.78443,78816
6.7918,76505
6.79918,85882
6.80657,87047
6.81393,77253
6.82132,78265
6.82868,102306
6.83607,128418
6.84343,164731
6.85082,174851
6.8582,151473
6.86557,120622
6.87295,126882
6.88032,162903
6.8877,165049
6.89508,173508
6.90245,229405
6.90983,276654
6.9172,307619
6.92458,189250
6.93195,92554
6.93933,122824
6.94672,265766
6.95408,326930
6.96147,226293
6.96883,161178
6.97622,236291
6.98358,413327
6.99097,485177
6.99835,267475
7.00572,114834
7.0131,110925
7.02047,129908
7.02785,119126
7.03523,92578
7.0426,84936
7.04998,109738
7.05735,234352
7.06473,303467
7.0721,204591
7.07948,163353
7.08687,171412
7.09423,122381
7.10162,88617
7.10898,80278
7.11637,72739
7.12375,70258
7.13112,70179
7.1385,79289
7.14587,80445
7.15325,70681
7.16062,66397
7.168,76800
7.17538,92658
7.18275,128131
7.19013,170217
7.1975,159936
7.20488,169935
7.21227,188389
7.21963,162054
7.22702,116312
7.23438,90060
7.24177,101763
7.24913,158070
7.25652,167465
7.2639,105475
7.27127,99915
7.27865,162537
7.28602,175567
7.2934,132085
7.30078,100001
7.30815,98527
7.31553,122016
7.3229,132579
7.33028,99909
7.33765,69540
7.34503,55211
7.35242,72542
7.35978,257659
7.36717,894596
7.37453,1151426
7.38192,549796
7.3893,174703
7.39667,107507
7.40405,86968
7.41142,87962
7.4188,91673
7.42617,90948
7.43355,84543
7.44093,90033
7.4483,93494
7.45568,80363
7.46305,79289
7.47043,97756
7.47782,105549
7.48518,88416
7.49257,77137
7.49993,78086
7.50732,91927
7.51468,115903
7.52207,113608
7.52945,87999
7.53682,88841
7.5442,104278
7.55157,101165
7.55895,106789
7.56632,84778
7.5737,60109
7.58108,68507
7.58845,98722
7.59583,106572
7.6032,93191
7.61058,102391
7.61797,122715
7.62533,99069
7.63272,60787
7.64008,48382
7.64747,55854
7.65483,95327
7.66222,171955
7.6696,163914
7.67697,84878
7.68435,54357
7.69172,47215
7.6991,45119
7.70648,43706
7.71385,51194
7.72123,58997
7.7286,60111
7.73598,63074
7.74335,64535
7.75073,62008
7.75812,62695
7.76548,82534
7.77287,99980
7.78023,85034
7.78762,85744
7.795,97282
7.80237,76687
7.80975,65749
7.81712,80830
7.8245,86954
7.83187,69542
7.83925,52636
7.84663,48192
7.854,50621
7.86138,53368
7.86875,52585
7.87613,60686
7.88352,69785
7.89088,72517
7.89827,70546
7.90563,60509
7.91302,56488
7.92038,62470
7.92777,64236
7.93515,67148
7.94252,69821
7.9499,65729
7.95727,57684
7.96465,45077
7.97203,49248
7.9794,61156
7.98678,72638
7.99415,88648
8.00153,95397
8.0089,106503
8.01628,92712
8.02367,78736
8.03103,98728
8.03842,95111
8.04578,56820
8.05317,44374
8.06055,50080
8.06792,54814
8.0753,49484
8.08267,39868
8.09005,40624
8.09742,51718
8.1048,63831
8.11218,65584
8.11955,64087
8.12693,77272
8.1343,89161
8.14168,76513
8.14905,55022
8.15643,47115
8.16382,41873
8.17118,38259
8.17857,37590
8.18593,37426
8.19332,36249
8.2007,36203
8.20807,40478
8.21545,42702
8.22282,40669
8.2302,35587
8.23757,33007
8.24495,31139
8.25233,31801
8.2597,33602
8.26708,36793
8.27445,37435
8.28183,35704
8.28922,35886
8.29658,42814
8.30397,49733
8.31133,50109
8.31872,43560
8.32608,38675
8.33347,37166
8.34085,35920
8.34822,36380
8.3556,39676
8.36297,42739
8.37035,47709
8.37773,48169
8.3851,70237
8.39248,155740
8.39985,181540
8.40723,85700
8.4146,46526
8.42198,40729
8.42937,39522
8.43673,39030
8.44412,40923
8.45148,40427
8.45887,41639
8.46625,41279
8.47362,44473
8.481,46468
8.48837,41530
8.49575,35950
8.50312,34052
8.5105,34597
8.51788,37238
8.52525,42226
8.53263,56982
8.54,57147
8.54738,41727
8.55477,32958
8.56213,31582
8.56952,32676
8.57688,32842
8.58427,32817
8.59163,33036
8.59902,34537
8.6064,33753
8.61377,33434
8.62115,34426
8.62852,34943
8.6359,33228
8.64328,30371
8.65065,29022
8.65803,28820
8.6654,30804
8.67278,34264
8.68015,36227
8.68753,31758
8.69492,30041
8.70228,30029
8.70967,31471
8.71703,33504
8.72442,33255
8.7318,30946
8.73917,30971
8.74655,29832
8.75392,31636
8.7613,30962
8.76867,31296
8.77605,31437
8.78343,29425
8.7908,27954
8.79818,28411
8.80555,29007
8.81293,28082
8.8203,30464
8.82768,32670
8.83507,35472
8.84243,36703
8.84982,34051
8.85718,33467
8.86457,32037
8.87195,29766
8.87932,29039
8.8867,29253
8.89407,29597
8.90145,31042
8.90882,33752
8.9162,30682
8.92358,33426
8.93095,50581
8.93833,98611
8.9457,181469
8.95308,232767
8.96047,166560
8.96783,112731
8.97522,87321
8.98258,72262
8.98997,63777
8.99733,59952
9.00472,57304
9.0121,61074
9.01947,60776
9.02685,50051
9.03422,46965
9.0416,46042
9.04898,44110
9.05635,40712
9.06373,38833
9.0711,40352
9.07848,48071
9.08585,48922
9.09323,48674
9.10062,61272
9.10798,65128
9.11537,47548
9.12273,40918
9.13012,40385
9.1375,37809
9.14487,36902
9.15225,40229
9.15962,43305
9.167,43627
9.17437,38942
9.18175,35957
9.18913,35337
9.1965,35625
9.20388,34010
9.21125,34136
9.21863,34631
9.22602,34719
9.23338,32848
9.24077,31735
9.24813,34057
9.25552,34822
9.26288,35241
9.27027,32820
9.27765,33339
9.28502,34896
9.2924,35130
9.29977,34603
9.30715,34451
9.31453,34460
9.3219,34285
9.32928,32622
9.33665,33045
9.34403,47434
9.3514,105340
9.35878,153091
9.36617,92403
9.37353,44761
9.38092,38418
9.38828,35974
9.39567,36165
9.40303,35497
9.41042,36767
9.4178,37482
9.42517,39181
9.43255,43318
9.43992,44701
9.4473,40322
9.45468,42102
9.46205,44921
9.46943,40118
9.4768,34706
9.48418,33888
9.49155,34862
9.49893,35338
9.50632,37099
9.51368,41902
9.52107,45634
9.52843,51588
9.53582,50103
9.5432,45617
9.55057,45063
9.55795,45185
9.56532,45405
9.5727,41434
9.58007,38585
9.58745,36754
9.59483,34442
9.6022,36182
9.60958,37073
9.61695,43563
9.62433,52957
9.63172,56742
9.63908,51586
9.64647,46286
9.65383,43455
9.66122,41922
9.66858,41356
9.67597,41270
9.68335,39801
9.69072,37806
9.6981,36825
9.70547,34214
9.71285,34200
9.72023,35053
9.7276,34809
9.73498,34806
9.74235,34779
9.74973,34120
9.7571,32427
9.76448,32886
9.77187,32976
9.77923,32427
9.78662,32464
9.79398,33952
9.80137,35091
9.80875,39064
9.81612,47094
9.8235,48996
9.83087,42928
9.83825,41155
9.84562,39192
9.853,38120
9.86038,35052
9.86775,34361
9.87513,33870
9.8825,38812
9.88988,44465
9.89727,44298
9.90463,40205
9.91202,37473
9.91938,35791
9.92677,39489
9.93413,49651
9.94152,51474
9.9489,41291
9.95627,36747
9.96365,35468
9.97102,34788
9.9784,33512
9.98577,34298
9.99315,36954
10.0005,47332
10.0079,48202
10.0153,41940
10.0227,39054
10.03,37188
10.0374,36591
10.0448,37494
10.0522,54836
10.0595,82920
10.0669,70713
10.0743,42996
10.0817,35452
10.0891,34071
10.0964,34317
10.1038,34175
10.1112,34873
10.1186,34883
10.1259,33964
10.1333,32474
10.1407,32486
10.1481,32381
10.1554,33905
10.1628,35808
10.1702,35771
10.1776,38094
10.1849,36786
10.1923,35649
10.1997,35095
10.2071,35165
10.2145,38341
10.2218,42661
10.2292,44152
10.2366,40758
10.244,44970
10.2513,93757
10.2587,203815
10.2661,183528
10.2735,77849
10.2808,45498
10.2882,44955
10.2956,47495
10.303,46225
10.3103,39331
10.3177,38200
10.3251,37346
10.3325,41632
10.3398,48074
10.3472,46978
10.3546,46179
10.362,45908
10.3694,42346
10.3767,38644
10.3841,38429
10.3915,40387
10.3989,41604
10.4062,40692
10.4136,37340
10.421,34500
10.4284,34650
10.4357,33369
10.4431,33549
10.4505,35851
10.4579,36081
10.4652,34755
10.4726,34806
10.48,33461
10.4874,35524
10.4948,35847
10.5021,33353
10.5095,34634
10.5169,33105
10.5243,34037
10.5316,34263
10.539,35912
10.5464,34481
10.5538,34638
10.5611,34875
10.5685,35842
10.5759,36161
10.5833,36253
10.5906,39034
10.598,38806
10.6054,37058
10.6128,34815
10.6202,37221
10.6275,38709
10.6349,38198
10.6423,35648
10.6497,35609
10.657,36025
10.6644,36978
10.6718,37746
10.6792,38500
10.6865,38910
10.6939,37404
10.7013,35607
10.7087,35031
10.716,36038
10.7234,36742
10.7308,39387
10.7382,39613
10.7455,37281
10.7529,39971
10.7603,41541
10.7677,39785
10.7751,36042
10.7824,34737
10.7898,40986
10.7972,51573
10.8046,51829
10.8119,43888
10.8193,38631
10.8267,36767
10.8341,35179
10.8414,34474
10.8488,33271
10.8562,32166
10.8636,34337
10.8709,37805
10.8783,39988
10.8857,42319
10.8931,42692
10.9005,40604
10.9078,37236
10.9152,36479
10.9226,34170
10.93,34685
10.9373,32647
10.9447,32816
10.9521,32465
10.9595,34260
10.9668,33991
10.9742,33414
10.9816,32680
10.989,31323
10.9963,31821
11.0037,32306
11.0111,32132
11.0185,33047
11.0259,33206
11.0332,34311
11.0406,32333
11.048,32558
11.0554,34430
11.0627,37645
11.0701,43624
11.0775,48927
11.0849,43535
11.0922,41907
11.0996,40445
11.107,56013
11.1144,64667
11.1217,47080
11.1291,36762
11.1365,36894
11.1439,34249
11.1512,33225
11.1586,31689
11.166,32634
11.1734,33261
11.1808,34030
11.1881,33869
11.1955,33541
11.2029,32487
11.2103,31683
11.2176,31937
11.225,32040
11.2324,33364
11.2398,33666
11.2471,36882
11.2545,36486
11.2619,34031
11.2693,31687
11.2766,31457
11.284,31373
11.2914,31274
11.2988,32996
11.3062,36799
11.3135,42874
11.3209,37733
11.3283,32807
11.3357,30894
11.343,31289
11.3504,32571
11.3578,31702
11.3652,31008
11.3725,30791
11.3799,30744
11.3873,30988
11.3947,30333
11.402,31174
11.4094,30452
11.4168,30665
11.4242,30740
11.4316,30049
11.4389,29960
11.4463,30989
11.4537,30143
11.4611,30450
11.4684,31161
11.4758,32750
11.4832,32022
11.4906,31630
11.4979,31980
11.5053,30452
11.5127,31866
11.5201,31397
11.5274,31292
11.5348,31906
11.5422,31194
11.5496,32544
11.557,30821
11.5643,32152
11.5717,30268
11.5791,30649
11.5865,31325
11.5938,30798
11.6012,30905
11.6086,30498
11.616,31240
11.6233,31207
11.6307,31940
11.6381,31626
11.6455,31155
11.6528,31070
11.6602,31561
11.6676,29869
11.675,31299
11.6823,30434
11.6897,32768
11.6971,30840
11.7045,33251
11.7119,29357
11.7192,30808
11.7266,31006
11.734,29787
11.7414,30909
11.7487,29474
11.7561,30063
11.7635,30374
11.7709,34841
11.7782,30241
11.7856,29618
11.793,30258
11.8004,35934
11.8077,36666
11.8151,36638
11.8225,35441
11.8299,36181
11.8373,35338
11.8446,35815
11.852,35134
11.8594,34302
11.8668,35794
11.8741,35032
11.8815,33293
11.8889,33464
11.8963,33495
11.9036,33605
11.911,39354
11.9184,43308
11.9258,39043
11.9331,36778
11.9405,37129
11.9479,36053
11.9553,37018
11.9627,37024
11.97,38256
11.9774,36673
11.9848,36349
11.9922,37099
11.9995,36669
12.0069,36604
12.0143,36073
12.0217,36453
12.029,36708
12.0364,35817
12.0438,36002
12.0512,35733
12.0585,36101
12.0659,35657
12.0733,35875
12.0807,35821
12.088,35762
12.0954,35404
12.1028,34772
12.1102,34930
12.1176,34727
12.1249,34502
12.1323,34231
12.1397,34839
12.1471,35159
12.1544,35020
12.1618,34563
12.1692,33704
12.1766,34910
12.1839,33197
12.1913,32075
12.1987,33034
12.2061,31444
12.2134,34036
12.2208,31946
12.2282,35418
12.2356,35932
12.243,36261
12.2503,35281
12.2577,36812
12.2651,36694
12.2725,37987
12.2798,36395
12.2872,36626
12.2946,35753
12.302,37419
12.3093,36260
12.3167,36897
12.3241,36006
12.3315,34780
12.3388,34622
12.3462,34352
12.3536,34174
12.361,34682
12.3684,35361
12.3757,33754
12.3831,33387
12.3905,32550
12.3979,34219
12.4052,36485
12.4126,37277
12.42,38386
12.4274,39372
12.4347,39240
12.4421,37642
12.4495,37062
12.4569,36060
12.4642,36956
12.4716,36986
12.479,37185
12.4864,36373
12.4937,37167
12.5011,37314
12.5085,36655
12.5159,36916
12.5233,36830
12.5306,36886
12.538,36308
12.5454,37257
12.5528,36512
12.5601,35767
12.5675,36111
12.5749,35699
12.5823,36577
12.5896,36638
12.597,36548
12.6044,37706
12.6118,36246
12.6191,36670
12.6265,36853
12.6339,37101
12.6413,35593
12.6487,35986
12.656,37184
12.6634,36696
12.6708,37974
12.6782,40564
12.6855,40754
12.6929,37369
12.7003,37906
12.7077,36762
12.715,36737
12.7224,37844
12.7298,37914
12.7372,38162
12.7445,37994
12.7519,36959
12.7593,36389
12.7667,37526
12.7741,37683
12.7814,37639
12.7888,37999
12.7962,37166
12.8036,37295
12.8109,37748
12.8183,37347
12.8257,38098
12.8331,36213
12.8404,37260
12.8478,37236
12.8552,37378
12.8626,37331
12.8699,37090
12.8773,37015
12.8847,36783
12.8921,36208
12.8994,35950
12.9068,37150
12.9142,37564
12.9216,36468
12.929,36819
12.9363,37027
12.9437,36924
12.9511,35222
12.9585,36466
12.9658,36328
12.9732,36652
12.9806,36417
12.988,36695
12.9953,36853
13.0027,36262
13.0101,36013
13.0175,36245
13.0248,36675
13.0322,36472
13.0396,35927
13.047,35234
13.0544,34734
13.0617,35188
13.0691,36375
13.0765,35357
13.0839,36049
13.0912,35469
13.0986,35049
13.106,34566
13.1134,35314
13.1207,33652
13.1281,34352
13.1355,33600
13.1429,34989
13.1502,32905
13.1576,36761
13.165,36324
13.1724,36838
13.1798,36090
13.1871,37186
13.1945,37176
13.2019,37484
13.2093,37871
13.2166,36246
13.224,36587
13.2314,36746
13.2388,37131
13.2461,36448
13.2535,36171
13.2609,36599
13.2683,36100
13.2756,35912
13.283,34161
13.2904,33560
13.2978,33157
13.3052,37096
13.3125,36375
13.3199,36681
13.3273,37276
13.3347,36594
13.342,35753
13.3494,35093
13.3568,33903
13.3642,34533
13.3715,37508
13.3789,34465
13.3863,33032
13.3937,35576
13.401,38169
13.4084,38557
13.4158,34128
13.4232,32706
13.4305,36511
13.4379,32247
13.4453,34511
13.4527,31870
13.4601,33248
13.4674,31273
13.4748,31799
13.4822,32270
13.4896,31483
13.4969,30871
13.5043,31605
13.5117,31450
13.5191,31466
13.5264,30743
13.5338,30988
13.5412,31462
13.5486,32260
13.5559,31194
13.5633,31675
13.5707,31456
13.5781,31143
13.5855,31512
13.5928,33126
13.6002,32541
13.6076,31395
13.615,32209
13.6223,31111
13.6297,30570
13.6371,31064
13.6445,31592
13.6518,31435
13.6592,32189
13.6666,30422
13.674,31348
13.6813,32184
13.6887,30900
13.6961,31342
13.7035,30980
13.7109,30851
13.7182,31637
13.7256,31434
13.733,34873
13.7404,41159
13.7477,42880
13.7551,35518
13.7625,34053
13.7699,32385
13.7772,31079
13.7846,31386
13.792,32335
13.7994,32348
13.8067,31786
13.8141,32422
13.8215,31859
13.8289,31857
13.8362,31727
13.8436,32105
13.851,31830
13.8584,32111
13.8658,31793
13.8731,31728
13.8805,31772
13.8879,31850
13.8953,31405
13.9026,31533
13.91,32240
13.9174,31863
13.9248,32513
13.9321,33235
13.9395,33364
13.9469,33474
13.9543,34514
13.9616,36390
13.969,35723
13.9764,35147
13.9838,33680
13.9912,33386
13.9985,32425
14.0059,33557
14.0133,33224
14.0207,33229
14.028,33095
14.0354,32718
14.0428,33134
14.0502,33293
14.0575,32911
14.0649,33282
14.0723,32218
14.0797,33066
14.087,33247
14.0944,33862
14.1018,33021
14.1092,33405
14.1166,33437
14.1239,33644
14.1313,33218
14.1387,33863
14.1461,32917
14.1534,33795
14.1608,33386
14.1682,34081
14.1756,34606
14.1829,32842
14.1903,33813
14.1977,33671
14.2051,33451
14.2124,33970
14.2198,33138
14.2272,34665
14.2346,34059
14.2419,34687
14.2493,34061
14.2567,34390
14.2641,34298
14.2715,33966
14.2788,34219
14.2862,34289
14.2936,35280
14.301,34619
14.3083,35465
14.3157,35167
14.3231,36077
14.3305,35724
14.3378,35752
14.3452,35519
14.3526,36202
14.36,37158
14.3673,37261
14.3747,36864
14.3821,37529
14.3895,37607
14.3969,38332
14.4042,40061
14.4116,39350
14.419,39100
14.4264,39549
14.4337,39898
14.4411,39284
14.4485,39786
14.4559,40990
14.4632,44803
14.4706,47183
14.478,46758
14.4854,45182
14.4927,44677
14.5001,42726
14.5075,43293
14.5149,43237
14.5223,41502
14.5296,42680
14.537,42006
14.5444,42670
14.5518,41456
14.5591,41092
14.5665,41758
14.5739,41193
14.5813,41852
14.5886,42275
14.596,42510
14.6034,44357
14.6108,44560
14.6181,44640
14.6255,44850
14.6329,46211
14.6403,47685
14.6477,46475
14.655,47138
14.6624,48625
14.6698,48306
14.6772,48641
14.6845,50630
14.6919,49281
14.6993,49815
14.7067,47141
14.714,48060
14.7214,47397
14.7288,47858
14.7362,46816
14.7435,46879
14.7509,48144
14.7583,47592
14.7657,48244
14.773,45957
14.7804,44663
14.7878,45493
14.7952,45435
14.8026,44200
14.8099,43138
14.8173,42730
14.8247,43907
14.8321,42234
14.8394,42729
14.8468,41356
14.8542,42277
14.8616,42035
14.8689,42167
14.8763,41427
14.8837,41580
14.8911,41285
14.8984,40786
14.9058,40243
14.9132,40823
14.9206,41526
14.928,41690
14.9353,40254
14.9427,38998
14.9501,39514
14.9575,39556
14.9648,39509
14.9722,39714
14.9796,39584
14.987,39979
14.9943,39741
15.0017,38728
15.0091,39185
15.0165,38955
15.0238,38836
15.0312,40032
15.0386,39310
15.046,39822
15.0534,38641
15.0607,39882
15.0681,39983
15.0755,39162
15.0829,39645
15.0902,39305
15.0976,39935
15.105,40153
15.1124,38431
15.1197,39762
15.1271,39169
15.1345,40720
15.1419,40141
15.1492,39798
15.1566,40085
15.164,39697
15.1714,41114
15.1787,41691
15.1861,43321
15.1935,42979
15.2009,43172
15.2083,42437
15.2156,42382
15.223,42030
15.2304,40385
15.2378,40897
15.2451,40997
15.2525,41638
15.2599,41882
15.2673,41392
15.2746,41708
15.282,42014
15.2894,42524
15.2968,41155
15.3041,41823
15.3115,41404
15.3189,44109
15.3263,44082
15.3337,43507
15.341,43837
15.3484,44640
15.3558,44607
15.3632,45103
15.3705,43508
15.3779,44459
15.3853,44213
15.3927,45075
15.4,44326
15.4074,44455
15.4148,45431
15.4222,45321
15.4295,45709
15.4369,45492
15.4443,44659
15.4517,45722
15.4591,44574
15.4664,46864
15.4738,44636
15.4812,45696
15.4886,45971
15.4959,46185
15.5033,45860
15.5107,46112
15.5181,46524
15.5254,46583
15.5328,47615
15.5402,49355
15.5476,47134
15.5549,45883
15.5623,48192
15.5697,47381
15.5771,48270
15.5844,48647
15.5918,50035
15.5992,51341
15.6066,51224
15.614,51748
15.6213,53400
15.6287,52011
15.6361,51931
15.6435,51550
15.6508,51781
15.6582,51595
15.6656,52405
15.673,51937
15.6803,51794
15.6877,53102
15.6951,51695
15.7025,48764
15.7098,49392
15.7172,50890
15.7246,50326
15.732,50257
15.7394,50808
15.7467,52565
15.7541,51062
15.7615,51378
15.7689,49074
15.7762,50861
15.7836,51196
15.791,52898
15.7984,53202
15.8057,53195
15.8131,52670
15.8205,51346
15.8279,50784
15.8352,51475
15.8426,52052
15.85,51814
15.8574,51981
15.8648,52257
15.8721,51423
15.8795,53619
15.8869,53601
15.8943,52544
15.9016,53802
15.909,53949
15.9164,54192
15.9238,55079
15.9311,54432
15.9385,54978
15.9459,55348
15.9533,54960
15.9606,55283
15.968,55648
15.9754,56351
15.9828,55877
15.9901,56325
15.9975,56237
16.0049,56601
16.0123,58102
16.0196,57699
16.027,58763
16.0344,59510
16.0418,58184
16.0492,57423
16.0565,56675
16.0639,56538
16.0713,57305
16.0787,57133
16.086,56255
16.0934,58154
16.1008,60451
16.1082,60213
16.1155,59698
16.1229,58683
16.1303,58148
16.1377,58674
16.1451,58707
16.1524,58891
16.1598,59335
16.1672,58701
16.1746,59331
16.1819,60258
16.1893,63335
16.1967,66468
16.204,63799
16.2114,61594
16.2188,60619
16.2262,61623
16.2336,62547
16.2409,62856
16.2483,63929
16.2557,63505
16.2631,62396
16.2705,61980
16.2778,62803
16.2852,65293
16.2926,72222
16.2999,71665
16.3073,66287
16.3147,64865
16.3221,63684
16.3295,63840
16.3368,63303
16.3442,65198
16.3516,66461
16.359,67068
16.3663,65743
16.3737,63802
16.3811,62900
16.3885,63516
16.3958,63284
16.4032,63463
16.4106,63559
16.418,63638
16.4254,64290
16.4327,65554
16.4401,64198
16.4475,64160
16.4549,64231
16.4622,65305
16.4696,64924
16.477,65225
16.4843,64481
16.4917,64320
16.4991,64452
16.5065,65703
16.5139,65369
16.5212,65016
16.5286,66260
16.536,67457
16.5434,66533
16.5508,66526
16.5581,65963
16.5655,66071
16.5729,65976
16.5802,67031
16.5876,68778
16.595,67125
16.6024,67268
16.6097,68640
16.6171,69774
16.6245,70140
16.6319,71451
16.6393,73448
16.6466,76611
16.654,81732
16.6614,80359
16.6688,76320
16.6762,80114
16.6835,76099
16.6909,77514
16.6983,78157
16.7056,76943
16.713,74115
16.7204,72727
16.7278,74000
16.7352,73418
16.7425,73474
16.7499,74265
16.7573,75621
16.7647,73139
16.772,71718
16.7794,69456
16.7868,70219
16.7942,69062
16.8015,70286
16.8089,68678
16.8163,70169
16.8237,70578
16.8311,69395
16.8384,68956
16.8458,70391
16.8532,70584
16.8606,69529
16.8679,70282
16.8753,72936
16.8827,71222
16.8901,69877
16.8974,70327
16.9048,69881
16.9122,70585
16.9196,70940
16.9269,70471
16.9343,71745
16.9417,71204
16.9491,72548
16.9565,70600
16.9638,72536
16.9712,73339
16.9786,72195
16.9859,72465
16.9933,73307
17.0007,73672
17.0081,72995
17.0155,72882
17.0228,73242
17.0302,75630
17.0376,75719
17.045,74680
17.0523,75607
17.0597,75326
17.0671,75577
17.0745,75181
17.0818,73702
17.0892,75828
17.0966,78842
17.104,83827
17.1114,80499
17.1187,77946
17.1261,76981
17.1335,76784
17.1409,82067
17.1482,87602
17.1556,87238
17.163,81139
17.1704,77751
17.1777,76415
17.1851,77359
17.1925,78692
17.1999,77810
17.2072,75955
17.2146,76287
17.222,76419
17.2294,75336
17.2368,75120
17.2441,76576
17.2515,76691
17.2589,75085
17.2662,76240
17.2736,77764
17.281,76664
17.2884,78473
17.2958,77326
17.3031,76515
17.3105,75639
17.3179,76489
17.3253,76790
17.3326,76062
17.34,76195
17.3474,78117
17.3548,76492
17.3622,75898
17.3695,75798
17.3769,76360
17.3843,74642
17.3916,75949
17.399,77856
17.4064,75075
17.4138,76403
17.4212,77365
17.4285,76830
17.4359,76774
17.4433,76686
17.4507,75001
17.458,75512
17.4654,75388
17.4728,77292
17.4802,76749
17.4876,78433
