D:\Data GC-MS-77B\2017\SEPTEMBER\05-09-17\50703-17 1 SKDM.D 05 Sep 17  05:54 pm
Start of data points
1.29393,9727
1.30067,9707
1.30742,10065
1.31415,10005
1.3209,23429
1.32765,879950
1.33438,4733726
1.34113,5881392
1.34787,5772929
1.35462,5881997
1.36135,5971536
1.3681,6074400
1.37485,6129639
1.38158,6120748
1.38833,6112291
1.39507,6137513
1.40182,6168215
1.40855,6200466
1.4153,6244225
1.42203,6273607
1.42878,6312373
1.43553,6306261
1.44227,6300318
1.44902,6284464
1.45575,6249919
1.4625,6221197
1.46923,6169105
1.47598,6079486
1.48273,5988859
1.48947,5865781
1.51033,15655094
1.5177,14806293
1.52508,13844278
1.53247,12812097
1.53983,11787464
1.54722,10825082
1.55458,9944214
1.56197,9148984
1.56935,8478255
1.57672,7928398
1.5841,7485059
1.59147,7120614
1.59885,6838216
1.60622,6605943
1.6136,6429506
1.62098,6244625
1.62835,6120667
1.63573,5997931
1.6431,5827193
1.65048,5715281
1.65787,5563173
1.66523,5429752
1.67262,5254789
1.67998,5088834
1.68737,4921192
1.69473,4734594
1.70212,4580440
1.7095,4372884
1.71687,4180286
1.72425,3985730
1.73162,3781144
1.739,3581967
1.74638,3367491
1.75375,3184886
1.76113,2995598
1.7685,2819316
1.77588,2638493
1.78325,2480034
1.79063,2318485
1.79802,2161134
1.80538,2013608
1.81277,1893764
1.82013,1757732
1.82752,1643870
1.83488,1533465
1.84227,1432546
1.84965,1344018
1.85702,1247771
1.8644,1156719
1.87177,1082481
1.87915,1013688
1.88653,937551
1.8939,873350
1.90128,814383
1.90865,759195
1.91603,702229
1.9234,656677
1.93078,603955
1.93817,564788
1.94553,522403
1.95292,489239
1.96028,455078
1.96767,424097
1.97505,389244
1.98242,364632
1.9898,342530
1.99717,321180
2.00455,299365
2.01192,278457
2.0193,263362
2.02668,246277
2.03405,227034
2.04143,212047
2.0488,198465
2.05618,187877
2.06357,178726
2.07093,164079
2.07832,154833
2.08568,146501
2.09307,137010
2.10043,128647
2.10782,119731
2.1152,112843
2.12257,105939
2.12995,100564
2.13732,94524
2.1447,89062
2.15208,87147
2.15945,88125
2.16683,85038
2.1742,82074
2.18158,78720
2.18895,75466
2.19633,70843
2.20372,67897
2.21108,64242
2.21847,63272
2.22583,59010
2.23322,56521
2.2406,54158
2.24797,52508
2.25535,51507
2.26272,49942
2.2701,50630
2.27747,51033
2.28485,47190
2.29223,45142
2.2996,42983
2.30698,43384
2.31435,43470
2.32173,40601
2.32912,39718
2.33648,38971
2.34387,38476
2.35123,39322
2.35862,36602
2.36598,36772
2.37337,36207
2.38075,36594
2.38812,35404
2.3955,37194
2.40287,36138
2.41025,35516
2.41762,34291
2.425,34253
2.43238,34003
2.43975,35100
2.44713,38343
2.4545,41868
2.46188,42053
2.46927,40066
2.47663,38423
2.48402,38258
2.49138,37393
2.49877,36396
2.50613,35984
2.51352,39926
2.5209,39815
2.52827,41293
2.53565,43876
2.54302,44067
2.5504,42802
2.55778,41729
2.56515,41707
2.57253,40981
2.5799,38964
2.58728,38744
2.59465,37885
2.60203,36356
2.60942,37817
2.61678,36496
2.62417,35422
2.63153,35695
2.63892,35067
2.6463,34347
2.65367,34066
2.66105,33208
2.66842,33239
2.6758,33458
2.68317,32669
2.69055,33319
2.69793,33633
2.7053,33707
2.71268,32917
2.72005,33514
2.72743,33159
2.73482,34178
2.74218,33333
2.74957,35060
2.75693,34557
2.76432,35122
2.77168,34969
2.77907,34129
2.78645,35094
2.79382,34949
2.8012,37248
2.80857,36852
2.81595,37059
2.82333,36984
2.8307,36819
2.83808,36773
2.84545,35547
2.85283,35026
2.8602,33902
2.86758,36336
2.87497,34131
2.88233,35022
2.88972,34132
2.89708,33582
2.90447,35438
2.91185,34098
2.91922,34908
2.9266,33643
2.93397,33505
2.94135,34135
2.94872,33304
2.9561,32925
2.96348,34507
2.97085,33778
2.97823,31750
2.9856,33247
2.99298,33290
3.00035,33727
3.00773,33671
3.01512,32810
3.02248,32503
3.02987,32484
3.03723,32008
3.04462,35378
3.052,34312
3.05937,34395
3.06675,34724
3.07412,35060
3.0815,34288
3.08887,33534
3.09625,32582
3.10363,33232
3.111,33033
3.11838,32936
3.12575,32846
3.13313,33893
3.14052,32280
3.14788,32187
3.15527,32669
3.16263,32603
3.17002,33033
3.17738,34047
3.18477,32977
3.19215,33004
3.19952,33011
3.2069,32596
3.21427,33603
3.22165,33968
3.22903,33457
3.2364,32812
3.24378,32827
3.25115,34274
3.25853,34805
3.2659,35927
3.27328,35474
3.28067,35880
3.28803,34380
3.29542,34637
3.30278,34070
3.31017,34283
3.31755,33850
3.32492,33391
3.3323,33690
3.33967,33426
3.34705,34302
3.35442,34415
3.3618,34198
3.36918,33548
3.37655,32984
3.38393,33637
3.3913,34391
3.39868,35438
3.40607,35604
3.41343,35898
3.42082,35552
3.42818,36405
3.43557,35608
3.44293,35371
3.45032,34502
3.4577,35528
3.46507,34868
3.47245,34775
3.47982,33801
3.4872,34092
3.49458,33865
3.50195,34666
3.50933,34222
3.5167,33563
3.52408,33969
3.53145,34856
3.53883,34363
3.54622,36132
3.55358,38570
3.56097,41154
3.56833,44441
3.57572,45673
3.58308,44889
3.59047,43424
3.59785,43163
3.60522,42692
3.6126,40967
3.61997,39800
3.62735,39510
3.63473,38445
3.6421,38031
3.64948,37479
3.65685,37415
3.66423,36117
3.6716,35955
3.67898,35704
3.68637,36303
3.69373,35227
3.70112,35445
3.70848,35587
3.71587,36461
3.72325,35131
3.73062,35458
3.738,35607
3.74537,35794
3.75275,35893
3.76012,37398
3.7675,37067
3.77488,37332
3.78225,37210
3.78963,37694
3.797,36457
3.80438,36820
3.81177,38285
3.81913,37580
3.82652,37591
3.83388,37646
3.84127,37788
3.84863,38075
3.85602,37697
3.8634,38403
3.87077,37368
3.87815,37516
3.88552,37403
3.8929,37097
3.90028,36866
3.90765,36831
3.91503,36940
3.9224,37100
3.92978,38228
3.93715,39979
3.94453,39516
3.95192,39061
3.95928,41491
3.96667,39287
3.97403,39126
3.98142,38854
3.9888,38739
3.99617,38012
4.00355,37685
4.01092,37712
4.0183,36894
4.02567,36002
4.03305,39578
4.04043,39422
4.0478,39454
4.05518,39507
4.06255,38413
4.06993,39216
4.07732,39190
4.08468,38675
4.09207,38396
4.09943,38880
4.10682,38478
4.11418,38643
4.12157,40380
4.12895,39181
4.13632,38487
4.1437,39386
4.15107,38163
4.15845,39338
4.16582,36830
4.1732,36608
4.18058,35302
4.18795,38727
4.19533,38872
4.2027,39971
4.21008,38433
4.21747,36922
4.22483,35301
4.23222,35716
4.23958,33831
4.24697,35107
4.25433,34307
4.26172,35076
4.2691,33867
4.27647,34086
4.28385,34238
4.29122,36143
4.2986,35353
4.30598,34601
4.31335,35192
4.32073,34252
4.3281,35855
4.33548,35201
4.34285,36208
4.35023,34925
4.35762,35112
4.36498,36796
4.37237,37327
4.37973,37896
4.38712,37506
4.3945,37409
4.40187,38806
4.40925,37165
4.41662,38028
4.424,39405
4.43137,38511
4.43875,37746
4.44613,38187
4.4535,38095
4.46088,37054
4.46825,37136
4.47563,37098
4.48302,37434
4.49038,36780
4.49777,37229
4.50513,35941
4.51252,36328
4.51988,36557
4.52727,35895
4.53465,35663
4.54202,34904
4.5494,35060
4.55677,34946
4.56415,34807
4.57153,34744
4.5789,34757
4.58628,33935
4.59365,34217
4.60103,34624
4.6084,34934
4.61578,33115
4.62317,34179
4.63053,33675
4.63792,33927
4.64528,33668
4.65267,33277
4.66005,34338
4.66742,34080
4.6748,34696
4.68217,36382
4.68955,37922
4.69692,38225
4.7043,38365
4.71168,35649
4.71905,35869
4.72643,33935
4.7338,34148
4.74118,34053
4.74855,33414
4.75593,32951
4.76332,32253
4.77068,35401
4.77807,42182
4.78543,46811
4.79282,44952
4.8002,42208
4.80757,38236
4.81495,37310
4.82232,34991
4.8297,33732
4.83707,33010
4.84445,32202
4.85183,32705
4.8592,32670
4.86658,32040
4.87395,31719
4.88133,32168
4.88872,32711
4.89608,32884
4.90347,31616
4.91083,31628
4.91822,31656
4.92558,31838
4.93297,30633
4.94035,31780
4.94772,32344
4.9551,31537
4.96247,31833
4.96985,31981
4.97723,32209
4.9846,32387
4.99198,31907
4.99935,31493
5.00673,32010
5.0141,31711
5.02148,32112
5.02887,31837
5.03623,31935
5.04362,32489
5.05098,32176
5.05837,32573
5.06575,35487
5.07312,38072
5.0805,37985
5.08787,36539
5.09525,34122
5.10262,33719
5.11,33431
5.11738,32224
5.12475,32444
5.13213,32261
5.1395,32795
5.14688,32502
5.15427,32422
5.16163,31944
5.16902,30763
5.17638,31296
5.18377,30346
5.19113,30556
5.19852,29733
5.2059,30102
5.21327,29770
5.22065,30579
5.22802,30330
5.2354,30095
5.24278,31338
5.25015,31416
5.25753,30334
5.2649,29446
5.27228,30672
5.27965,29703
5.28703,29888
5.29442,30194
5.30178,31866
5.30917,30971
5.31653,31528
5.32392,31140
5.33128,31507
5.33867,31063
5.34605,30066
5.35342,30921
5.3608,29597
5.36817,29948
5.37555,30607
5.38293,31113
5.3903,29386
5.39768,30158
5.40505,29210
5.41243,31670
5.4198,31680
5.42718,30526
5.43457,31466
5.44193,30305
5.44932,30487
5.45668,30579
5.46407,30570
5.47145,30152
5.47882,31535
5.4862,31195
5.49357,30740
5.50095,30563
5.50832,30240
5.5157,31659
5.52308,30887
5.53045,30166
5.53783,30669
5.5452,29969
5.55258,30197
5.55997,29920
5.56733,31241
5.57472,30315
5.58208,31804
5.58947,31277
5.59683,30723
5.60422,30206
5.6116,30595
5.61897,30419
5.62635,30476
5.63372,29683
5.6411,29543
5.64848,31867
5.65585,31184
5.66323,31265
5.6706,30574
5.67798,31906
5.68535,31442
5.69273,30254
5.70012,30967
5.70748,29661
5.71487,30256
5.72223,29613
5.72962,29775
5.737,30707
5.74437,29678
5.75175,30806
5.75912,30353
5.7665,29975
5.77387,31406
5.78125,32475
5.78863,35134
5.796,35905
5.80338,34574
5.81075,32443
5.81813,31995
5.82552,32097
5.83288,31635
5.84027,31555
5.84763,32121
5.85502,31822
5.86238,32638
5.86977,35529
5.87715,42217
5.88452,48214
5.8919,46857
5.89927,44157
5.90665,41990
5.91402,37412
5.9214,35913
5.92878,33124
5.93615,32356
5.94353,32799
5.9509,34961
5.95828,39666
5.96567,40382
5.97303,36955
5.98042,35209
5.98778,32521
5.99517,32319
6.00253,32694
6.00992,32195
6.0173,32868
6.02467,32368
6.03205,32519
6.03942,32560
6.0468,33160
6.05418,33366
6.06155,32841
6.06893,32399
6.0763,33353
6.08368,33093
6.09105,33657
6.09843,37217
6.10582,38427
6.11318,36884
6.12057,33768
6.12793,33975
6.13532,33499
6.1427,33556
6.15007,34915
6.15745,33522
6.16482,33307
6.1722,32440
6.17957,33273
6.18695,32805
6.19433,32634
6.2017,33571
6.20908,33176
6.21645,33292
6.22383,32171
6.23122,31895
6.23858,31197
6.24597,36780
6.25333,52143
6.26072,60462
6.26808,48990
6.27547,37946
6.28285,32003
6.29022,28722
6.2976,28504
6.30497,27550
6.31235,28415
6.31973,28808
6.3271,28198
6.33448,28214
6.34185,26862
6.34923,26249
6.3566,25221
6.36398,24384
6.37137,25016
6.37873,24647
6.38612,25185
6.39348,24428
6.40087,24509
6.40825,23609
6.41562,24734
6.423,23956
6.43037,23270
6.43775,24263
6.44512,23635
6.4525,23488
6.45988,24596
6.46725,23606
6.47463,23302
6.482,24558
6.48938,23525
6.49677,23314
6.50413,24011
6.51152,23652
6.51888,23729
6.52627,23193
6.53363,23531
6.54102,23435
6.5484,23632
6.55577,23113
6.56315,23582
6.57052,24538
6.5779,23600
6.58527,25057
6.59265,29550
6.60003,32786
6.6074,30141
6.61478,25351
6.62215,23757
6.62953,23460
6.63692,22565
6.64428,23082
6.65167,23559
6.65903,22818
6.66642,23435
6.67378,22978
6.68117,23814
6.68855,22975
6.69592,23465
6.7033,24139
6.71067,23824
6.71805,24007
6.72543,23933
6.7328,23451
6.74018,23972
6.74755,23841
6.75493,25571
6.7623,26195
6.76968,25682
6.77707,24069
6.78443,24249
6.79182,25188
6.79918,24513
6.80657,24724
6.81395,25152
6.82132,23654
6.8287,24447
6.83607,24820
6.84345,24467
6.85082,24069
6.8582,24618
6.86558,24983
6.87295,24527
6.88033,25811
6.8877,26260
6.89508,26314
6.90247,27964
6.90983,26677
6.91722,24862
6.92458,24678
6.93197,24067
6.93933,25468
6.94672,25901
6.9541,25783
6.96147,26314
6.96885,27131
6.97622,27581
6.9836,26715
6.99098,26545
6.99835,24407
7.00573,24299
7.0131,24305
7.02048,24348
7.02785,24484
7.03523,25327
7.04262,25367
7.04998,24733
7.05737,24543
7.06473,25662
7.07212,25022
7.0795,25992
7.08687,25728
7.09425,25872
7.10162,25049
7.109,24294
7.11637,24460
7.12375,24225
7.13113,23817
7.1385,23879
7.14588,24012
7.15325,23798
7.16063,24653
7.168,24301
7.17538,24496
7.18277,26465
7.19013,26438
7.19752,26570
7.20488,25753
7.21227,26758
7.21965,26232
7.22702,24727
7.2344,23382
7.24177,24411
7.24915,24472
7.25652,24532
7.2639,24334
7.27128,25954
7.27865,29041
7.28603,28669
7.2934,25521
7.30078,24251
7.30817,24169
7.31553,24456
7.32292,24516
7.33028,24018
7.33767,24292
7.34503,23339
7.35242,23871
7.3598,24351
7.36717,24553
7.37455,24012
7.38192,24497
7.3893,23821
7.39668,24368
7.40405,25354
7.41143,24419
7.4188,24828
7.42618,29251
7.43355,34528
7.44093,31031
7.44832,27666
7.45568,24864
7.46307,25655
7.47043,25183
7.47782,24367
7.4852,23295
7.49257,23267
7.49995,23847
7.50732,24827
7.5147,24374
7.52207,24471
7.52945,24769
7.53683,23718
7.5442,24074
7.55158,24240
7.55895,24216
7.56633,24402
7.57372,23486
7.58108,24152
7.58847,22836
7.59583,24337
7.60322,24640
7.61058,25741
7.61797,27310
7.62535,26179
7.63272,24466
7.6401,24163
7.64747,23776
7.65485,26146
7.66223,28430
7.6696,29625
7.67698,24668
7.68435,24467
7.69173,23617
7.6991,23607
7.70648,23589
7.71387,23324
7.72123,23873
7.72862,23320
7.73598,25323
7.74337,24563
7.75073,22967
7.75812,23781
7.7655,23840
7.77287,22505
7.78025,22779
7.78762,22650
7.795,23007
7.80238,23535
7.80975,23202
7.81713,23714
7.8245,23797
7.83188,23520
7.83925,23066
7.84663,23785
7.85402,23278
7.86138,23494
7.86877,23613
7.87613,24420
7.88352,24198
7.8909,26978
7.89827,24108
7.90565,23457
7.91302,22130
7.9204,22736
7.92777,22664
7.93515,21736
7.94253,22687
7.9499,21625
7.95728,22416
7.96465,22735
7.97203,23419
7.97942,23165
7.98678,23313
7.99417,24175
8.00153,23533
8.00892,23190
8.01628,21780
8.02367,21422
8.03105,22505
8.03842,21211
8.0458,20627
8.05317,21299
8.06055,20561
8.06793,20901
8.0753,20980
8.08268,21818
8.09005,21401
8.09743,21709
8.1048,21477
8.11218,20144
8.11957,20946
8.12693,22055
8.13432,20992
8.14168,22399
8.14907,22630
8.15645,22369
8.16382,21239
8.1712,20982
8.17857,20750
8.18595,21015
8.19332,21227
8.2007,20392
8.20808,21077
8.21545,20816
8.22283,21251
8.2302,21060
8.23758,20570
8.24497,20525
8.25233,20178
8.25972,21343
8.26708,20435
8.27447,21207
8.28183,20393
8.28922,20472
8.2966,19597
8.30397,19524
8.31135,20404
8.31872,20578
8.3261,20625
8.33347,20766
8.34085,20980
8.34823,20048
8.3556,20701
8.36298,21317
8.37035,23063
8.37773,24122
8.38512,23070
8.39248,21250
8.39987,20939
8.40723,20611
8.41462,20304
8.42198,20335
8.42937,20344
8.43675,20211
8.44412,21836
8.4515,22747
8.45887,22336
8.46625,24226
8.47363,24796
8.481,23724
8.48838,22467
8.49575,20440
8.50313,20441
8.5105,20050
8.51788,20046
8.52527,20471
8.53263,20356
8.54002,20831
8.54738,20396
8.55477,20187
8.56215,20172
8.56952,21048
8.5769,20620
8.58427,21011
8.59165,20245
8.59902,21008
8.6064,20614
8.61378,21281
8.62115,21977
8.62853,20534
8.6359,20626
8.64328,20300
8.65067,21116
8.65803,22585
8.66542,22322
8.67278,22734
8.68017,22593
8.68753,21789
8.69492,22090
8.7023,21968
8.70967,21474
8.71705,21100
8.72442,21842
8.7318,21075
8.73918,20749
8.74655,21708
8.75393,21483
8.7613,21105
8.76868,21180
8.77605,21349
8.78343,20942
8.79082,21330
8.79818,21487
8.80557,21505
8.81293,22109
8.82032,21217
8.8277,21336
8.83507,21427
8.84245,20496
8.84982,22414
8.8572,21585
8.86457,21380
8.87195,21166
8.87933,21103
8.8867,20937
8.89408,20391
8.90145,20566
8.90883,21483
8.9162,20400
8.92358,24003
8.93097,41467
8.93833,95587
8.94572,202952
8.95308,303644
8.96047,236965
8.96785,131928
8.97522,90814
8.9826,73172
8.98997,63823
8.99735,57943
9.00472,52713
9.0121,48528
9.01948,47278
9.02685,43731
9.03423,41156
9.0416,39951
9.04898,38908
9.05637,36609
9.06373,35425
9.07112,35974
9.07848,36890
9.08587,34654
9.09323,34046
9.10062,32935
9.108,31967
9.11537,30819
9.12275,31798
9.13012,30520
9.1375,30421
9.14488,30401
9.15225,30166
9.15963,29521
9.167,29637
9.17438,30018
9.18175,28012
9.18913,28046
9.19652,29109
9.20388,28225
9.21127,27530
9.21863,27677
9.22602,27062
9.2334,27146
9.24077,26603
9.24815,27875
9.25552,28185
9.2629,26965
9.27027,27468
9.27765,27944
9.28503,27703
9.2924,27930
9.29978,27499
9.30715,26350
9.31453,26146
9.32192,27533
9.32928,26837
9.33667,26480
9.34403,26583
9.35142,29748
9.35878,29595
9.36617,29119
9.37355,31491
9.38092,32606
9.3883,35430
9.39567,36002
9.40305,35890
9.41043,36366
9.4178,37434
9.42518,37920
9.43255,38275
9.43993,38794
9.4473,40841
9.45468,44550
9.46207,45659
9.46943,39944
9.47682,37221
9.48418,38030
9.49157,37856
9.49893,38493
9.50632,37727
9.5137,38216
9.52107,37262
9.52845,37387
9.53582,38216
9.5432,37307
9.55058,37982
9.55795,37375
9.56533,35808
9.5727,33188
9.58008,29578
9.58745,27864
9.59483,26906
9.60222,26764
9.60958,27798
9.61697,30415
9.62433,33698
9.63172,34343
9.6391,30125
9.64647,28220
9.65385,26042
9.66122,26787
9.6686,25971
9.67597,26137
9.68335,25334
9.69073,25456
9.6981,25262
9.70548,25509
9.71285,25843
9.72023,25077
9.72762,24570
9.73498,24377
9.74237,25081
9.74973,24263
9.75712,24964
9.76448,30432
9.77187,47429
9.77925,53138
9.78662,37235
9.794,29137
9.80137,27083
9.80875,26948
9.81613,26326
9.8235,26571
9.83088,25792
9.83825,25356
9.84563,25478
9.853,25581
9.86038,26993
9.86777,26525
9.87513,26125
9.88252,24486
9.88988,25033
9.89727,25344
9.90465,24226
9.91202,24835
9.9194,24601
9.92677,25751
9.93415,28889
9.94152,37335
9.9489,39191
9.95628,33982
9.96365,29036
9.97103,27135
9.9784,26017
9.98578,27681
9.99317,28157
10.0005,28414
10.0079,28313
10.0153,27337
10.0227,27294
10.03,27253
10.0374,26658
10.0448,26585
10.0522,26545
10.0596,26610
10.0669,26148
10.0743,25605
10.0817,25141
10.0891,25403
10.0964,26272
10.1038,31148
10.1112,39976
10.1186,41204
10.1259,32640
10.1333,28263
10.1407,27040
10.1481,25796
10.1554,26779
10.1628,25608
10.1702,25958
10.1776,25683
10.185,26396
10.1923,26657
10.1997,26068
10.2071,26164
10.2145,27845
10.2218,28076
10.2292,27545
10.2366,26582
10.244,28059
10.2513,28635
10.2587,28244
10.2661,27260
10.2735,25926
10.2808,25179
10.2882,24266
10.2956,25212
10.303,24459
10.3104,25143
10.3177,24753
10.3251,25228
10.3325,26086
10.3399,26793
10.3472,25614
10.3546,27909
10.362,31746
10.3694,29989
10.3767,26666
10.3841,25663
10.3915,25302
10.3989,27265
10.4062,26595
10.4136,24850
10.421,27379
10.4284,26688
10.4357,26694
10.4431,27084
10.4505,29694
10.4579,32592
10.4653,32325
10.4726,29345
10.48,26008
10.4874,24826
10.4948,24536
10.5021,24216
10.5095,24943
10.5169,25115
10.5243,25075
10.5316,26323
10.539,26735
10.5464,26228
10.5538,25351
10.5611,24303
10.5685,25348
10.5759,25325
10.5833,29161
10.5907,32446
10.598,39436
10.6054,34647
10.6128,28318
10.6202,28742
10.6275,30791
10.6349,31772
10.6423,27925
10.6497,26009
10.657,26341
10.6644,26398
10.6718,27608
10.6792,31648
10.6865,31836
10.6939,28852
10.7013,27118
10.7087,25606
10.7161,25294
10.7234,25206
10.7308,25000
10.7382,25635
10.7456,26706
10.7529,30023
10.7603,30962
10.7677,30413
10.7751,31948
10.7824,30950
10.7898,28517
10.7972,28671
10.8046,31276
10.8119,33133
10.8193,31945
10.8267,29106
10.8341,27596
10.8414,26125
10.8488,25452
10.8562,26878
10.8636,26955
10.871,28296
10.8783,32148
10.8857,40064
10.8931,41207
10.9005,38789
10.9078,35710
10.9152,36039
10.9226,34406
10.93,31256
10.9373,31969
10.9447,30655
10.9521,30387
10.9595,29020
10.9668,27209
10.9742,27469
10.9816,26456
10.989,27270
10.9964,27790
11.0037,29873
11.0111,29143
11.0185,29146
11.0259,28152
11.0332,28713
11.0406,36320
11.048,43885
11.0554,51682
11.0627,52841
11.0701,52144
11.0775,51513
11.0849,40976
11.0922,33071
11.0996,32428
11.107,38493
11.1144,41811
11.1218,47252
11.1291,63420
11.1365,61337
11.1439,45191
11.1513,40841
11.1586,38691
11.166,37243
11.1734,39592
11.1808,44830
11.1881,44523
11.1955,45970
11.2029,48115
11.2103,51154
11.2176,46137
11.225,38333
11.2324,35725
11.2398,37667
11.2472,39847
11.2545,40599
11.2619,39183
11.2693,39292
11.2767,42700
11.284,44297
11.2914,40487
11.2988,45877
11.3062,62787
11.3135,66303
11.3209,49729
11.3283,38727
11.3357,37424
11.343,37167
11.3504,37376
11.3578,38697
11.3652,42020
11.3725,41710
11.3799,38963
11.3873,35678
11.3947,38491
11.4021,46462
11.4094,51313
11.4168,49768
11.4242,43546
11.4316,43460
11.4389,59595
11.4463,64705
11.4537,52589
11.4611,64283
11.4684,110279
11.4758,124862
11.4832,93582
11.4906,89959
11.4979,83916
11.5053,63605
11.5127,63127
11.5201,79003
11.5275,97365
11.5348,113537
11.5422,90786
11.5496,56215
11.557,45425
11.5643,56312
11.5717,77533
11.5791,81398
11.5865,63545
11.5938,47941
11.6012,43070
11.6086,49442
11.616,61291
11.6233,69763
11.6307,67836
11.6381,68765
11.6455,65081
11.6529,59107
11.6602,64406
11.6676,89241
11.675,100515
11.6824,83142
11.6897,84567
11.6971,100596
11.7045,82500
11.7119,54645
11.7192,44348
11.7266,49288
11.734,53408
11.7414,51543
11.7487,46498
11.7561,47771
11.7635,49801
11.7709,47939
11.7782,47653
11.7856,53967
11.793,66600
11.8004,92196
11.8078,103960
11.8151,97849
11.8225,83961
11.8299,83023
11.8373,97997
11.8446,88501
11.852,77147
11.8594,89040
11.8668,114761
11.8741,112683
11.8815,118239
11.8889,188158
11.8963,194808
11.9036,117549
11.911,106334
11.9184,128387
11.9258,110072
11.9332,86940
11.9405,86940
11.9479,136355
11.9553,192814
11.9627,194820
11.97,210856
11.9774,261160
11.9848,279842
11.9922,283200
11.9995,242295
12.0069,153764
12.0143,167787
12.0217,253713
12.029,236095
12.0364,139209
12.0438,105358
12.0512,116045
12.0586,163423
12.0659,257494
12.0733,321590
12.0807,211360
12.0881,131091
12.0954,107721
12.1028,102879
12.1102,108446
12.1176,137830
12.1249,178243
12.1323,196517
12.1397,214829
12.1471,345184
12.1544,613048
12.1618,612764
12.1692,366799
12.1766,300766
12.1839,354082
12.1913,352358
12.1987,220290
12.2061,189567
12.2135,274418
12.2208,288258
12.2282,184260
12.2356,126673
12.243,132915
12.2503,172978
12.2577,235674
12.2651,335840
12.2725,317795
12.2798,293001
12.2872,489310
12.2946,606262
12.302,450994
12.3093,421766
12.3167,400891
12.3241,350760
12.3315,303334
12.3389,224238
12.3462,172670
12.3536,162465
12.361,181435
12.3684,168648
12.3757,140880
12.3831,138516
12.3905,139824
12.3979,132195
12.4052,139335
12.4126,176881
12.42,293756
12.4274,340901
12.4347,242026
12.4421,156528
12.4495,124394
12.4569,126489
12.4643,205674
12.4716,326616
12.479,320216
12.4864,224416
12.4938,177848
12.5011,171203
12.5085,170632
12.5159,284658
12.5233,716891
12.5306,1053145
12.538,650196
12.5454,283068
12.5528,173260
12.5601,171519
12.5675,200798
12.5749,216228
12.5823,177045
12.5896,131885
12.597,134155
12.6044,182104
12.6118,219407
12.6192,210405
12.6265,176492
12.6339,168933
12.6413,214124
12.6487,258991
12.656,275824
12.6634,332500
12.6708,468863
12.6782,674273
12.6855,595825
12.6929,283058
12.7003,147276
12.7077,141302
12.715,203026
12.7224,342715
12.7298,391896
12.7372,349723
12.7446,404752
12.7519,395047
12.7593,305921
12.7667,334743
12.7741,384683
12.7814,403448
12.7888,406760
12.7962,543634
12.8036,944693
12.8109,1187249
12.8183,925293
12.8257,632540
12.8331,610380
12.8404,627953
12.8478,498136
12.8552,310756
12.8626,280126
12.87,320790
12.8773,306260
12.8847,488062
12.8921,937862
12.8995,1040463
12.9068,790557
12.9142,808188
12.9216,1155118
12.929,1371138
12.9363,905858
12.9437,494758
12.9511,360587
12.9585,408662
12.9658,579676
12.9732,548626
12.9806,433858
12.988,490652
12.9954,561742
13.0027,527594
13.0101,489289
13.0175,433302
13.0249,532669
13.0322,698551
13.0396,743342
13.047,604065
13.0544,608776
13.0617,751924
13.0691,665998
13.0765,584379
13.0839,686679
13.0912,974141
13.0986,1080596
13.106,701844
13.1134,383314
13.1207,341954
13.1281,393355
13.1355,368841
13.1429,425200
13.1503,780122
13.1576,1180373
13.165,1091990
13.1724,647728
13.1798,471819
13.1871,557816
13.1945,484956
13.2019,316465
13.2093,325119
13.2166,434442
13.224,395354
13.2314,283428
13.2388,272554
13.2461,296786
13.2535,302337
13.2609,378945
13.2683,428074
13.2757,401658
13.283,413588
13.2904,518219
13.2978,571488
13.3052,441126
13.3125,436470
13.3199,664284
13.3273,659510
13.3347,488324
13.342,355954
13.3494,324945
13.3568,301833
13.3642,295094
13.3715,451245
13.3789,647360
13.3863,586482
13.3937,517005
13.4011,668695
13.4084,715450
13.4158,573969
13.4232,472407
13.4306,388638
13.4379,334041
13.4453,287647
13.4527,315194
13.4601,418473
13.4674,565985
13.4748,937636
13.4822,1082509
13.4896,947537
13.4969,856904
13.5043,738627
13.5117,780716
13.5191,1056054
13.5264,943607
13.5338,564132
13.5412,393665
13.5486,296736
13.556,292428
13.5633,353814
13.5707,393852
13.5781,390285
13.5855,495755
13.5928,599254
13.6002,539731
13.6076,589183
13.615,734756
13.6223,690849
13.6297,600159
13.6371,620814
13.6445,500008
13.6518,333189
13.6592,331547
13.6666,326605
13.674,256692
13.6814,235839
13.6887,261138
13.6961,284450
13.7035,376736
13.7109,610578
13.7182,728004
13.7256,633921
13.733,647637
13.7404,946135
13.7477,1422427
13.7551,1221420
13.7625,757344
13.7699,682729
13.7772,680352
13.7846,619941
13.792,569810
13.7994,449210
13.8068,360609
13.8141,307041
13.8215,250102
13.8289,241593
13.8363,254286
13.8436,230871
13.851,236960
13.8584,389660
13.8658,590889
13.8731,584980
13.8805,425361
13.8879,328297
13.8953,326495
13.9026,329555
13.91,264828
13.9174,274437
13.9248,380862
13.9321,449661
13.9395,436197
13.9469,375155
13.9543,340189
13.9617,486101
13.969,663137
13.9764,545618
13.9838,387003
13.9912,414053
13.9985,448395
14.0059,350358
14.0133,290488
14.0207,313448
14.028,384788
14.0354,406565
14.0428,330522
14.0502,268483
14.0575,265939
14.0649,245264
14.0723,237824
14.0797,249784
14.0871,227174
14.0944,213985
14.1018,267786
14.1092,507463
14.1166,799459
14.1239,695715
14.1313,489337
14.1387,533084
14.1461,408759
14.1534,262758
14.1608,238104
14.1682,269610
14.1756,237058
14.1829,194213
14.1903,165283
14.1977,145013
14.2051,147794
14.2125,162201
14.2198,209035
14.2272,334896
14.2346,406515
14.242,341061
14.2493,304286
14.2567,273489
14.2641,238569
14.2715,203106
14.2788,194832
14.2862,260014
14.2936,352214
14.301,369357
14.3083,307111
14.3157,232268
14.3231,180599
14.3305,184727
14.3378,237980
14.3452,283131
14.3526,277364
14.36,257705
14.3674,268702
14.3747,252727
14.3821,213959
14.3895,184124
14.3969,218495
14.4042,300553
14.4116,324485
14.419,234489
14.4264,173151
14.4337,162735
14.4411,166316
14.4485,174551
14.4559,187403
14.4632,204083
14.4706,263106
14.478,361926
14.4854,397913
14.4928,325351
14.5001,267565
14.5075,277031
14.5149,246978
14.5223,192464
14.5296,164574
14.537,139462
14.5444,151885
14.5518,151268
14.5591,128143
14.5665,119795
14.5739,128186
14.5813,146485
14.5886,145239
14.596,136690
14.6034,153315
14.6108,184582
14.6182,213966
14.6255,214025
14.6329,192349
14.6403,162910
14.6477,158414
14.655,163379
14.6624,146722
14.6698,135170
14.6772,131177
14.6845,120062
14.6919,117649
14.6993,123982
14.7067,150304
14.714,176592
14.7214,172292
14.7288,150240
14.7362,122028
14.7436,109783
14.7509,128985
14.7583,187226
14.7657,184030
14.7731,128198
14.7804,107220
14.7878,104757
14.7952,99351
14.8026,94395
14.8099,93852
14.8173,108738
14.8247,123293
14.8321,119915
14.8394,107157
14.8468,115226
14.8542,107630
14.8616,100414
14.8689,101195
14.8763,102639
14.8837,108645
14.8911,96756
14.8985,84070
14.9058,81105
14.9132,80570
14.9206,87728
14.928,95477
14.9353,89880
14.9427,82622
14.9501,81663
14.9575,81769
14.9648,80441
14.9722,87217
14.9796,90775
14.987,88138
14.9943,83745
15.0017,80655
15.0091,77517
15.0165,76924
15.0239,80936
15.0312,88342
15.0386,83242
15.046,76128
15.0534,73916
15.0607,79387
15.0681,77890
15.0755,71118
15.0829,70406
15.0902,75257
15.0976,77181
15.105,73961
15.1124,71177
15.1197,66340
15.1271,70320
15.1345,79926
15.1419,87104
15.1493,81203
15.1566,74413
15.164,73214
15.1714,82560
15.1788,87477
15.1861,80747
15.1935,72851
15.2009,68976
15.2083,66909
15.2156,67446
15.223,66984
15.2304,70461
15.2378,72738
15.2451,74557
15.2525,71729
15.2599,73832
15.2673,73768
15.2746,69053
15.282,63612
15.2894,61546
15.2968,57323
15.3042,65895
15.3115,90965
15.3189,102446
15.3263,78578
15.3337,63663
15.341,60570
15.3484,61485
15.3558,61765
15.3632,65305
15.3705,66572
15.3779,60261
15.3853,60711
15.3927,60645
15.4,59149
15.4074,58003
15.4148,58329
15.4222,63309
15.4296,63745
15.4369,65286
15.4443,72636
15.4517,72008
15.4591,64873
15.4664,60065
15.4738,59163
15.4812,60568
15.4886,61092
15.4959,61352
15.5033,59786
15.5107,59728
15.5181,60192
15.5254,61027
15.5328,62240
15.5402,63564
15.5476,62018
15.555,58525
15.5623,56669
15.5697,57413
15.5771,58647
15.5845,60277
15.5918,60789
15.5992,71331
15.6066,87910
15.614,79400
15.6213,65911
15.6287,60064
15.6361,56426
15.6435,56907
15.6508,56525
15.6582,57121
15.6656,56374
15.673,58769
15.6803,57295
15.6877,58063
15.6951,57492
15.7025,56024
15.7099,54184
15.7172,52610
15.7246,52720
15.732,51363
15.7394,51017
15.7467,55608
15.7541,55787
15.7615,55008
15.7689,53261
15.7762,52733
15.7836,52904
15.791,52935
15.7984,54600
15.8057,54223
15.8131,52269
15.8205,51709
15.8279,52488
15.8353,52696
15.8426,52769
15.85,52869
15.8574,53550
15.8648,52476
15.8721,51843
15.8795,52095
15.8869,52306
15.8943,53119
15.9016,51762
15.909,52520
15.9164,52777
15.9238,54133
15.9311,52431
15.9385,52306
15.9459,53586
15.9533,53909
15.9607,52440
15.968,54214
15.9754,52870
15.9828,52818
15.9902,54196
15.9975,55929
16.0049,54727
16.0123,54432
16.0196,55705
16.027,57643
16.0344,55402
16.0418,56013
16.0492,57643
16.0565,57776
16.0639,57489
16.0713,54309
16.0787,55189
16.086,53895
16.0934,55236
16.1008,58506
16.1082,57621
16.1155,57345
16.1229,55434
16.1303,56225
16.1377,57734
16.1451,58120
16.1524,57812
16.1598,57067
16.1672,55958
16.1746,55596
16.1819,56228
16.1893,58455
16.1967,58113
16.2041,56351
16.2114,56529
16.2188,55795
16.2262,55545
16.2336,55797
16.241,55190
16.2483,56705
16.2557,56191
16.2631,56329
16.2705,54964
16.2778,54592
16.2852,56523
16.2926,56641
16.2999,58523
16.3073,58119
16.3147,56848
16.3221,56174
16.3295,55563
16.3368,57672
16.3442,59798
16.3516,59631
16.359,58724
16.3664,56166
16.3737,55531
16.3811,54008
16.3885,54980
16.3958,53656
16.4032,55832
16.4106,56202
16.418,55660
16.4254,56605
16.4327,56711
16.4401,56271
16.4475,55971
16.4549,57141
16.4622,55421
16.4696,55976
16.477,55287
16.4844,57068
16.4918,55161
16.4991,55428
16.5065,56180
16.5139,56050
16.5212,55669
16.5286,58216
16.536,58924
16.5434,59323
16.5508,58382
16.5581,59221
16.5655,59139
16.5729,60278
16.5803,59768
16.5876,59193
16.595,59773
16.6024,60396
16.6098,61704
16.6171,59777
16.6245,61298
16.6319,61238
16.6393,58227
16.6467,59390
16.654,57904
16.6614,57899
16.6688,58615
16.6762,60473
16.6835,58721
16.6909,59818
16.6983,58343
16.7056,57594
16.713,60653
16.7204,59640
16.7278,58366
16.7352,58763
16.7425,60399
16.7499,63399
16.7573,64575
16.7647,61833
16.7721,59163
16.7794,62439
16.7868,58995
16.7942,60027
16.8015,58817
16.8089,60066
16.8163,63936
16.8237,62564
16.8311,62142
16.8384,63920
16.8458,62273
16.8532,61229
16.8606,61737
16.8679,62664
16.8753,60403
16.8827,61161
16.8901,60360
16.8974,62087
16.9048,61530
16.9122,61202
16.9196,61277
16.927,62922
16.9343,61304
16.9417,61463
16.9491,62544
16.9565,63528
16.9638,63639
16.9712,63747
16.9786,65252
16.986,62956
16.9933,64087
17.0007,62639
17.0081,63282
17.0155,63062
17.0228,63548
17.0302,62835
17.0376,64386
17.045,65835
17.0524,65164
17.0597,64012
17.0671,64232
17.0745,63520
17.0818,63864
17.0892,66696
17.0966,75963
17.104,82155
17.1114,76422
17.1187,69706
17.1261,65651
17.1335,65502
17.1409,65051
17.1482,67000
17.1556,65969
17.163,64037
17.1704,63777
17.1778,64440
17.1851,63874
17.1925,64851
17.1999,64002
17.2072,64905
17.2146,63889
17.222,63893
17.2294,63053
17.2368,64512
17.2441,63315
17.2515,63019
17.2589,62560
17.2663,65428
17.2736,68122
17.281,67798
17.2884,65698
17.2958,65608
17.3031,64515
17.3105,63762
17.3179,62502
17.3253,63812
17.3327,64491
17.34,64362
17.3474,64945
17.3548,63256
17.3622,61730
17.3695,63496
17.3769,64104
17.3843,62445
17.3917,61642
17.399,63089
17.4064,64059
17.4138,62475
17.4212,62914
17.4285,65279
17.4359,63425
17.4433,63429
17.4507,62671
17.4581,63697
17.4654,61442
17.4728,63926
17.4802,67256
17.4876,83475
