D:\Data GC-MS-77B\2017\SEPTEMBER\05-09-17\50703-17 2A SKDM.D 05 Sep 17  06:45 pm
Start of data points
1.2939,10468
1.30063,10359
1.30738,10166
1.31412,10481
1.32087,51613
1.32762,952767
1.33435,2883142
1.3411,6120536
1.34783,6329501
1.35458,6346195
1.36132,6344118
1.36807,6356266
1.3748,6358675
1.38155,6342785
1.3883,6317222
1.39503,6274121
1.40178,6250436
1.40852,6177575
1.41527,6092977
1.422,5934617
1.42875,5725630
1.4355,5435552
1.44223,5101163
1.44898,4693650
1.45572,4279150
1.46247,3891199
1.4692,3535263
1.47595,3222662
1.4827,2940075
1.48943,2704686
1.5103,7394595
1.51767,7104128
1.52505,6901598
1.53243,6689076
1.5398,6567668
1.54718,6416654
1.55455,6305843
1.56193,6162675
1.5693,6037216
1.57668,5885245
1.58407,5718284
1.59143,5553937
1.59882,5357147
1.60618,5172502
1.61357,4980580
1.62095,4784403
1.62832,4592998
1.6357,4400342
1.64307,4166338
1.65045,3924170
1.65782,3713806
1.6652,3512209
1.67258,3312077
1.67995,3100056
1.68733,2906211
1.6947,2720447
1.70208,2544643
1.70947,2380099
1.71683,2211464
1.72422,2055569
1.73158,1918518
1.73897,1779731
1.74633,1655451
1.75372,1528215
1.7611,1422921
1.76847,1319606
1.77585,1213634
1.78322,1129398
1.7906,1038922
1.79798,961668
1.80535,885690
1.81273,820653
1.8201,757830
1.82748,701673
1.83485,652033
1.84223,601400
1.84962,555555
1.85698,523577
1.86437,482001
1.87173,446471
1.87912,414108
1.8865,384753
1.89387,359028
1.90125,331335
1.90862,305275
1.916,284471
1.92337,264748
1.93075,245734
1.93813,229306
1.9455,211724
1.95288,201028
1.96025,186957
1.96763,174933
1.97502,162201
1.98238,149733
1.98977,140592
1.99713,134736
2.00452,127171
2.01188,120431
2.01927,114042
2.02665,106411
2.03402,100888
2.0414,95772
2.04877,90291
2.05615,86759
2.06352,83531
2.0709,78684
2.07828,74447
2.08565,72136
2.09303,70337
2.1004,65642
2.10778,62174
2.11517,59802
2.12253,57380
2.12992,55103
2.13728,53012
2.14467,51389
2.15203,48910
2.15942,47585
2.1668,46103
2.17417,45793
2.18155,43851
2.18892,43667
2.1963,42087
2.20368,41125
2.21105,40429
2.21843,39492
2.2258,38726
2.23318,38360
2.24055,37044
2.24793,37088
2.25532,36006
2.26268,35669
2.27007,35853
2.27743,36558
2.28482,36213
2.2922,36473
2.29957,35394
2.30695,34371
2.31432,34780
2.3217,35080
2.32907,33705
2.33645,32865
2.34383,32625
2.3512,32884
2.35858,32271
2.36595,32135
2.37333,32483
2.38072,31586
2.38808,31773
2.39547,31658
2.40283,31864
2.41022,31912
2.41758,31279
2.42497,31366
2.43235,32273
2.43972,29875
2.4471,29924
2.45447,30740
2.46185,31644
2.46923,30875
2.4766,32188
2.48398,32148
2.49135,31814
2.49873,31261
2.5061,30478
2.51348,31981
2.52087,32433
2.52823,32619
2.53562,34803
2.54298,35137
2.55037,34946
2.55775,35723
2.56512,33696
2.5725,33984
2.57987,34166
2.58725,33210
2.59462,32126
2.602,32921
2.60938,31439
2.61675,31476
2.62413,31500
2.6315,31987
2.63888,31710
2.64625,31274
2.65363,30622
2.66102,30507
2.66838,30498
2.67577,31757
2.68313,30476
2.69052,30875
2.6979,30029
2.70527,31115
2.71265,30429
2.72002,30583
2.7274,30451
2.73477,30903
2.74215,30339
2.74953,30704
2.7569,30982
2.76428,30846
2.77165,30912
2.77903,30997
2.78642,31948
2.79378,31272
2.80117,32157
2.80853,32845
2.81592,32543
2.82328,31910
2.83067,33184
2.83805,32728
2.84542,32787
2.8528,32617
2.86017,33227
2.86755,32946
2.87493,32359
2.8823,32544
2.88968,31344
2.89705,32333
2.90443,30813
2.9118,31550
2.91918,31219
2.92657,31409
2.93393,31106
2.94132,31147
2.94868,30595
2.95607,31386
2.96345,30251
2.97082,30314
2.9782,30912
2.98557,30453
2.99295,31402
3.00032,30662
3.0077,30492
3.01508,31114
3.02245,30092
3.02983,30495
3.0372,30998
3.04458,30444
3.05197,29745
3.05933,30208
3.06672,30575
3.07408,30686
3.08147,30297
3.08883,29522
3.09622,30350
3.1036,30367
3.11097,29644
3.11835,31106
3.12572,30743
3.1331,30939
3.14048,30677
3.14785,30504
3.15523,30372
3.1626,30046
3.16998,31219
3.17735,30249
3.18473,31221
3.19212,30758
3.19948,30967
3.20687,31334
3.21423,30835
3.22162,30699
3.22898,30110
3.23637,30381
3.24375,30942
3.25112,30798
3.2585,31257
3.26587,30795
3.27325,31179
3.28063,32145
3.288,30823
3.29538,31795
3.30275,30952
3.31013,30788
3.3175,32396
3.32488,31482
3.33227,31357
3.33963,30926
3.34702,30648
3.35438,30680
3.36177,31648
3.36915,32140
3.37652,32054
3.3839,31586
3.39127,30810
3.39865,32648
3.40602,31630
3.4134,32872
3.42078,30843
3.42815,31963
3.43553,32318
3.4429,31225
3.45028,31286
3.45767,31599
3.46503,31629
3.47242,31879
3.47978,31731
3.48717,32095
3.49453,32918
3.50192,32154
3.5093,31540
3.51667,31533
3.52405,31288
3.53142,32563
3.5388,31849
3.54618,32648
3.55355,32843
3.56093,35871
3.5683,43405
3.57568,47325
3.58305,48733
3.59043,49072
3.59782,46040
3.60518,42208
3.61257,39290
3.61993,37439
3.62732,36641
3.6347,35724
3.64207,34766
3.64945,34268
3.65682,34051
3.6642,33328
3.67157,33316
3.67895,32980
3.68633,33159
3.6937,32305
3.70108,32849
3.70845,33196
3.71583,33121
3.72322,32840
3.73058,32236
3.73797,33070
3.74533,32268
3.75272,32985
3.76008,33307
3.76747,32577
3.77485,33015
3.78222,32898
3.7896,33426
3.79697,32907
3.80435,33252
3.81173,33959
3.8191,33506
3.82648,33759
3.83385,34002
3.84123,33487
3.8486,33591
3.85598,34057
3.86337,33419
3.87073,34286
3.87812,33071
3.88548,33657
3.89287,33221
3.90023,33538
3.90762,34499
3.915,34131
3.92237,36250
3.92975,36335
3.93712,38664
3.9445,40458
3.95188,41258
3.95925,39392
3.96663,37877
3.974,37162
3.98138,36915
3.98875,36041
3.99613,34620
4.00352,35665
4.01088,35208
4.01827,34766
4.02563,35178
4.03302,35192
4.0404,34667
4.04777,36150
4.05515,34932
4.06252,34623
4.0699,35471
4.07727,34353
4.08465,35239
4.09203,34876
4.0994,34874
4.10678,34959
4.11415,34726
4.12153,34805
4.12892,35203
4.13628,34970
4.14367,35045
4.15103,36138
4.15842,35378
4.16578,34866
4.17317,31718
4.18055,31492
4.18792,30139
4.1953,30449
4.20267,30035
4.21005,28881
4.21743,28492
4.2248,28757
4.23218,29238
4.23955,28251
4.24693,28508
4.2543,28727
4.26168,28933
4.26907,29320
4.27643,28522
4.28382,29861
4.29118,28680
4.29857,28960
4.30595,29156
4.31332,29578
4.3207,29109
4.32807,29881
4.33545,29318
4.34282,28414
4.3502,29672
4.35758,29581
4.36495,28227
4.37233,28948
4.3797,30249
4.38708,29072
4.39447,29604
4.40183,29978
4.40922,30483
4.41658,30158
4.42397,30476
4.43133,30731
4.43872,31437
4.4461,30915
4.45347,30344
4.46085,29974
4.46822,29756
4.4756,29822
4.48297,30923
4.49035,30334
4.49773,29769
4.5051,29927
4.51248,29278
4.51985,29784
4.52723,29031
4.53462,30328
4.54198,29765
4.54937,29602
4.55673,29134
4.56412,29497
4.57148,29446
4.57887,29569
4.58625,28495
4.59362,28497
4.601,29001
4.60837,29406
4.61575,28830
4.62313,28912
4.6305,28400
4.63788,28462
4.64525,27749
4.65263,28578
4.66,29103
4.66738,29174
4.67477,30080
4.68213,32709
4.68952,34814
4.69688,35338
4.70427,35285
4.71165,33062
4.71902,31324
4.7264,30171
4.73377,28886
4.74115,29232
4.74852,28639
4.7559,29113
4.76328,29253
4.77065,31537
4.77803,39341
4.7854,50221
4.79278,54152
4.80017,47737
4.80753,40808
4.81492,34569
4.82228,31539
4.82967,29641
4.83703,29085
4.84442,28918
4.8518,28785
4.85917,28923
4.86655,28689
4.87392,29579
4.8813,28851
4.88868,28922
4.89605,27823
4.90343,28215
4.9108,27807
4.91818,28053
4.92555,28018
4.93293,28315
4.94032,28497
4.94768,27955
4.95507,28934
4.96243,28072
4.96982,28736
4.9772,28406
4.98457,28721
4.99195,28606
4.99932,28294
5.0067,27733
5.01407,28925
5.02145,28230
5.02883,28672
5.0362,29107
5.04358,30871
5.05095,31746
5.05833,29911
5.0657,31522
5.07308,34711
5.08047,35977
5.08783,33489
5.09522,31334
5.10258,31197
5.10997,30089
5.11735,30664
5.12472,30469
5.1321,30230
5.13947,30899
5.14685,32178
5.15422,32286
5.1616,31413
5.16898,29813
5.17635,29794
5.18373,28863
5.1911,29369
5.19848,28629
5.20587,29031
5.21323,28826
5.22062,28324
5.22798,29271
5.23537,28927
5.24273,28667
5.25012,28461
5.2575,28000
5.26487,29554
5.27225,28495
5.27962,29172
5.287,28898
5.29438,27840
5.30175,29108
5.30913,28173
5.3165,28433
5.32388,28860
5.33125,28397
5.33863,28481
5.34602,28252
5.35338,27970
5.36077,29124
5.36813,29229
5.37552,29035
5.3829,28705
5.39027,28668
5.39765,28796
5.40502,28884
5.4124,28825
5.41977,27892
5.42715,28886
5.43453,28108
5.4419,29427
5.44928,28499
5.45665,29063
5.46403,29154
5.47142,28592
5.47878,28932
5.48617,28295
5.49353,28564
5.50092,28414
5.50828,28952
5.51567,28013
5.52305,28419
5.53042,28598
5.5378,28258
5.54517,29331
5.55255,29124
5.55993,28579
5.5673,28501
5.57468,29238
5.58205,28692
5.58943,29543
5.5968,29629
5.60418,30059
5.61157,30113
5.61893,30794
5.62632,30252
5.63368,30678
5.64107,29059
5.64843,29909
5.65582,29482
5.6632,29383
5.67057,28891
5.67795,29365
5.68532,29095
5.6927,29877
5.70008,29463
5.70745,30742
5.71483,30205
5.7222,29430
5.72958,29458
5.73695,28841
5.74433,29033
5.75172,28998
5.75908,29705
5.76647,29826
5.77383,29705
5.78122,31104
5.7886,33696
5.79597,35194
5.80335,33164
5.81072,31432
5.8181,30269
5.82547,30157
5.83285,29285
5.84023,29500
5.8476,29795
5.85498,29090
5.86235,30527
5.86973,31078
5.87712,39917
5.88448,51620
5.89187,50899
5.89923,47119
5.90662,45370
5.91398,38766
5.92137,34040
5.92875,31246
5.93612,29999
5.9435,32296
5.95087,32112
5.95825,35921
5.96563,37133
5.973,36100
5.98038,32418
5.98775,31443
5.99513,30241
6.0025,29332
6.00988,29357
6.01727,30331
6.02463,30618
6.03202,30339
6.03938,29937
6.04677,30711
6.05415,30132
6.06152,30993
6.0689,30854
6.07627,29932
6.08365,30203
6.09102,31842
6.0984,36233
6.10578,37783
6.11315,35463
6.12053,31425
6.1279,31942
6.13528,31058
6.14267,30797
6.15003,31810
6.15742,31308
6.16478,30867
6.17217,33281
6.17953,33877
6.18692,35287
6.1943,35764
6.20167,35697
6.20905,34702
6.21642,30983
6.2238,29105
6.23117,27017
6.23855,27043
6.24593,31742
6.2533,50992
6.26068,65320
6.26805,51968
6.27543,35356
6.28282,28704
6.29018,26703
6.29757,25085
6.30493,26037
6.31232,26389
6.31968,27233
6.32707,29020
6.33445,26738
6.34182,24797
6.3492,23997
6.35657,23363
6.36395,22931
6.37133,22454
6.3787,22908
6.38608,22932
6.39345,22293
6.40083,22722
6.4082,23295
6.41558,22300
6.42297,22122
6.43033,22901
6.43772,22190
6.44508,21886
6.45247,22706
6.45985,22125
6.46722,22121
6.4746,22926
6.48197,22327
6.48935,21646
6.49672,22526
6.5041,22283
6.51148,22515
6.51885,22748
6.52623,21554
6.5336,22380
6.54098,21751
6.54837,22342
6.55573,22455
6.56312,21839
6.57048,22402
6.57787,22950
6.58523,23607
6.59262,29882
6.6,35682
6.60737,31316
6.61475,26214
6.62212,24015
6.6295,23445
6.63688,24116
6.64425,25563
6.65163,25989
6.659,23492
6.66638,23380
6.67375,22385
6.68113,22384
6.68852,23778
6.69588,23140
6.70327,23463
6.71063,23161
6.71802,22676
6.7254,22061
6.73277,21284
6.74015,21704
6.74752,23172
6.7549,24424
6.76227,25812
6.76965,24111
6.77703,21499
6.7844,21438
6.79178,21730
6.79915,22029
6.80653,21529
6.8139,21646
6.82128,21305
6.82867,21450
6.83603,21921
6.84342,21687
6.85078,22088
6.85817,23219
6.86555,22990
6.87292,23096
6.8803,23904
6.88767,23560
6.89505,25712
6.90242,26964
6.9098,24735
6.91718,23081
6.92455,22063
6.93193,22879
6.9393,23914
6.94668,24100
6.95407,25023
6.96143,24880
6.96882,26293
6.97618,28203
6.98357,28110
6.99093,25409
6.99832,23450
7.0057,23175
7.01307,22874
7.02045,21823
7.02782,22439
7.0352,23098
7.04258,27534
7.04995,34115
7.05733,34259
7.0647,28944
7.07208,26909
7.07945,27417
7.08683,28071
7.09422,27181
7.10158,29648
7.10897,29994
7.11633,27457
7.12372,24179
7.1311,23516
7.13847,23127
7.14585,23636
7.15322,23710
7.1606,23801
7.16797,22934
7.17535,23110
7.18273,26282
7.1901,28274
7.19748,26122
7.20485,26895
7.21223,27962
7.21962,26456
7.22698,23371
7.23437,22026
7.24173,23004
7.24912,24484
7.25648,25780
7.26387,26526
7.27125,30122
7.27862,36581
7.286,33206
7.29337,25507
7.30075,23398
7.30813,23798
7.3155,24285
7.32288,24903
7.33025,23947
7.33763,22534
7.345,22233
7.35238,23730
7.35977,24603
7.36713,25042
7.37452,24463
7.38188,23445
7.38927,22333
7.39663,23042
7.40402,23528
7.4114,23814
7.41877,33937
7.42615,79961
7.43352,132231
7.4409,91862
7.44828,43985
7.45565,31606
7.46303,28708
7.4704,26743
7.47778,26894
7.48515,25857
7.49253,25552
7.49992,25411
7.50728,26217
7.51467,29579
7.52203,30092
7.52942,27539
7.5368,26185
7.54417,25518
7.55155,26086
7.55892,26324
7.5663,25931
7.57367,27943
7.58105,29750
7.58843,28920
7.5958,27285
7.60318,29506
7.61055,37833
7.61793,42794
7.62532,36339
7.63268,27899
7.64007,26485
7.64743,27577
7.65482,37072
7.66218,52384
7.66957,49797
7.67695,34666
7.68432,28123
7.6917,26891
7.69907,25955
7.70645,26876
7.71383,27327
7.7212,26409
7.72858,26474
7.73595,26903
7.74333,26628
7.7507,26346
7.75808,26160
7.76547,26963
7.77283,28374
7.78022,28458
7.78758,27630
7.79497,27057
7.80235,26819
7.80972,27206
7.8171,29016
7.82447,29866
7.83185,28808
7.83922,27274
7.8466,26648
7.85398,25930
7.86135,27555
7.86873,33528
7.8761,42253
7.88348,43853
7.89087,37126
7.89823,33123
7.90562,28948
7.91298,26196
7.92037,26677
7.92773,26671
7.93512,25114
7.9425,24593
7.94987,25263
7.95725,24122
7.96462,25271
7.972,27867
7.97937,33478
7.98675,36424
7.99413,44656
8.0015,50836
8.00888,48942
8.01625,39811
8.02363,32054
8.03102,35172
8.03838,38574
8.04577,33681
8.05313,31573
8.06052,33112
8.06788,35247
8.07527,43723
8.08265,48702
8.09002,41111
8.0974,33800
8.10477,34663
8.11215,35195
8.11953,33953
8.1269,30297
8.13428,28591
8.14165,28061
8.14903,29215
8.1564,30392
8.16378,27730
8.17117,24966
8.17853,23329
8.18592,24038
8.19328,24887
8.20067,29005
8.20805,35002
8.21542,37479
8.2228,33104
8.23017,34083
8.23755,35480
8.24492,33239
8.2523,29935
8.25968,26720
8.26705,26732
8.27443,25758
8.2818,25950
8.28918,25041
8.29657,25300
8.30393,25875
8.31132,26635
8.31868,30552
8.32607,30711
8.33343,28848
8.34082,30359
8.3482,34625
8.35557,40626
8.36295,67170
8.37032,136716
8.3777,154494
8.38508,94340
8.39245,58215
8.39983,45939
8.4072,34334
8.41458,30236
8.42195,27633
8.42933,26400
8.43672,29258
8.44408,34231
8.45147,45625
8.45883,48979
8.46622,47212
8.4736,54498
8.48097,59270
8.48835,48418
8.49572,33520
8.5031,27958
8.51047,27045
8.51785,26780
8.52523,26703
8.5326,26633
8.53998,28234
8.54735,27287
8.55473,28423
8.56212,29727
8.56948,34750
8.57687,39423
8.58423,34106
8.59162,26314
8.59898,25365
8.60637,25669
8.61375,26561
8.62112,27165
8.6285,26963
8.63587,26309
8.64325,24977
8.65062,28600
8.658,33036
8.66538,33989
8.67275,32089
8.68013,30957
8.6875,28880
8.69488,28217
8.70227,28757
8.70963,31911
8.71702,35772
8.72438,36255
8.73177,31065
8.73913,28285
8.74652,28561
8.7539,29577
8.76127,29477
8.76865,30356
8.77602,28681
8.7834,27492
8.79078,27258
8.79815,27260
8.80553,28571
8.8129,28205
8.82028,33281
8.82765,39818
8.83503,41118
8.84242,37493
8.84978,38325
8.85717,42822
8.86453,39397
8.87192,33993
8.8793,31186
8.88667,32801
8.89405,34537
8.90142,35399
8.9088,35114
8.91617,33080
8.92355,33460
8.93093,53006
8.9383,113610
8.94568,243029
8.95305,526554
8.96043,1029890
8.96782,1073801
8.97518,539156
8.98257,286205
8.98993,218047
8.99732,200316
9.00468,163465
9.01207,129684
9.01945,111914
9.02682,103669
9.0342,98607
9.04157,97805
9.04895,89772
9.05633,74209
9.0637,66646
9.07108,65806
9.07845,70460
9.08583,72473
9.0932,67958
9.10058,64277
9.10797,65325
9.11533,61408
9.12272,59355
9.13008,68150
9.13747,78358
9.14485,68960
9.15222,58521
9.1596,61947
9.16697,68750
9.17435,69492
9.18172,74587
9.1891,72632
9.19648,62392
9.20385,51803
9.21123,53389
9.2186,59468
9.22598,55321
9.23335,47151
9.24073,44336
9.24812,44259
9.25548,47184
9.26287,52142
9.27023,55424
9.27762,60681
9.285,71816
9.29237,78059
9.29975,67416
9.30712,56178
9.3145,56203
9.32187,61366
9.32925,57652
9.33663,48618
9.344,53193
9.35138,63728
9.35875,68892
9.36613,54380
9.37352,47344
9.38088,50073
9.38827,54420
9.39563,54517
9.40302,52547
9.41038,57855
9.41777,62327
9.42515,53952
9.43252,55979
9.4399,70945
9.44727,138258
9.45465,272400
9.46203,266107
9.4694,119929
9.47678,53391
9.48415,45203
9.49153,48191
9.4989,50094
9.50628,57708
9.51367,63252
9.52103,58304
9.52842,52832
9.53578,52823
9.54317,50935
9.55055,50711
9.55792,52993
9.5653,53841
9.57267,49150
9.58005,43411
9.58742,44792
9.5948,48357
9.60218,58325
9.60955,71703
9.61693,103078
9.6243,163241
9.63168,151206
9.63907,92951
9.64643,68757
9.65382,67713
9.66118,63545
9.66857,53907
9.67593,50625
9.68332,45573
9.6907,44778
9.69807,43592
9.70545,45887
9.71282,43203
9.7202,42270
9.72758,40791
9.73495,38648
9.74233,42513
9.7497,45151
9.75708,46714
9.76445,45615
9.77183,54018
9.77922,58751
9.78658,51460
9.79397,46375
9.80133,43481
9.80872,41745
9.81608,48379
9.82347,52908
9.83085,46740
9.83822,42297
9.8456,45022
9.85297,48301
9.86035,40777
9.86773,38392
9.8751,38352
9.88248,40909
9.88985,42651
9.89723,41292
9.9046,43298
9.91198,45730
9.91937,44390
9.92673,42140
9.93412,43164
9.94148,50820
9.94887,54776
9.95625,53529
9.96362,50994
9.971,47321
9.97837,43329
9.98575,39466
9.99312,40532
10.0005,46192
10.0079,52797
10.0153,47253
10.0226,44753
10.03,43138
10.0374,41608
10.0448,38016
10.0521,41055
10.0595,42568
10.0669,40160
10.0743,37298
10.0816,35311
10.089,34997
10.0964,36698
10.1038,38201
10.1112,39141
10.1185,42640
10.1259,39659
10.1333,37210
10.1407,38072
10.148,37767
10.1554,38007
10.1628,39654
10.1702,39955
10.1775,38971
10.1849,37995
10.1923,37746
10.1997,39188
10.207,44127
10.2144,65882
10.2218,78491
10.2292,60525
10.2366,42729
10.2439,38806
10.2513,47440
10.2587,60068
10.2661,59534
10.2734,54778
10.2808,51444
10.2882,45516
10.2956,42106
10.3029,41468
10.3103,44606
10.3177,46088
10.3251,50373
10.3324,55450
10.3398,59952
10.3472,57222
10.3546,69586
10.362,102995
10.3693,97965
10.3767,67041
10.3841,58715
10.3915,63682
10.3988,68747
10.4062,64825
10.4136,53741
10.421,44483
10.4283,42488
10.4357,44320
10.4431,53934
10.4505,86092
10.4578,126835
10.4652,130310
10.4726,87755
10.48,57102
10.4873,46995
10.4947,43176
10.5021,40966
10.5095,41354
10.5169,41918
10.5242,47187
10.5316,53823
10.539,53902
10.5464,47128
10.5537,42570
10.5611,41047
10.5685,39952
10.5759,45522
10.5832,67992
10.5906,139109
10.598,208939
10.6054,154532
10.6127,80545
10.6201,81240
10.6275,122483
10.6349,114151
10.6423,76836
10.6496,56643
10.657,50463
10.6644,56932
10.6718,96079
10.6791,156137
10.6865,147185
10.6939,93664
10.7013,64302
10.7086,49976
10.716,46272
10.7234,46868
10.7308,50559
10.7381,51880
10.7455,57626
10.7529,65578
10.7603,77003
10.7677,107936
10.775,129320
10.7824,111085
10.7898,78761
10.7972,73371
10.8045,90840
10.8119,105106
10.8193,87712
10.8267,68485
10.834,58616
10.8414,51480
10.8488,48316
10.8562,51370
10.8635,58268
10.8709,79810
10.8783,151344
10.8857,300177
10.8931,317607
10.9004,196313
10.9078,144543
10.9152,167828
10.9226,147527
10.9299,90991
10.9373,66645
10.9447,63774
10.9521,64626
10.9594,60926
10.9668,55101
10.9742,52043
10.9816,52860
10.9889,56273
10.9963,67205
11.0037,75524
11.0111,73404
11.0184,70442
11.0258,64509
11.0332,55540
11.0406,57440
11.048,66416
11.0553,68360
11.0627,69783
11.0701,83176
11.0775,95159
11.0848,89376
11.0922,91320
11.0996,132156
11.107,194097
11.1143,231277
11.1217,360198
11.1291,590268
11.1365,530149
11.1438,239179
11.1512,135026
11.1586,117586
11.166,119603
11.1734,165057
11.1807,220241
11.1881,250080
11.1955,275597
11.2029,330392
11.2102,421863
11.2176,330693
11.225,159702
11.2324,120405
11.2397,144926
11.2471,171872
11.2545,192236
11.2619,193183
11.2692,190041
11.2766,234774
11.284,238467
11.2914,192206
11.2988,274131
11.3061,501684
11.3135,532196
11.3209,290367
11.3283,156277
11.3356,138863
11.343,143174
11.3504,141089
11.3578,164437
11.3651,189233
11.3725,194079
11.3799,171169
11.3873,157506
11.3946,169584
11.402,231895
11.4094,302896
11.4168,285607
11.4241,216682
11.4315,285676
11.4389,592160
11.4463,631003
11.4537,410134
11.461,533291
11.4684,1172499
11.4758,1338697
11.4832,870718
11.4905,743927
11.4979,681215
11.5053,422678
11.5127,421870
11.52,598415
11.5274,812320
11.5348,1019476
11.5422,765999
11.5495,327709
11.5569,199001
11.5643,311762
11.5717,604802
11.5791,671457
11.5864,376745
11.5938,205757
11.6012,181970
11.6086,238323
11.6159,411094
11.6233,546761
11.6307,491787
11.6381,478363
11.6454,438801
11.6528,357958
11.6602,406530
11.6676,625455
11.6749,762767
11.6823,576769
11.6897,604991
11.6971,795615
11.7045,573248
11.7118,264032
11.7192,176728
11.7266,218475
11.734,284973
11.7413,256566
11.7487,205484
11.7561,210604
11.7635,231105
11.7708,231924
11.7782,238546
11.7856,274937
11.793,427579
11.8003,695004
11.8077,857221
11.8151,798629
11.8225,562850
11.8298,557709
11.8372,723959
11.8446,704649
11.852,514935
11.8594,539744
11.8667,787102
11.8741,785355
11.8815,744856
11.8889,1245060
11.8962,1369898
11.9036,771743
11.911,645584
11.9184,881453
11.9257,695374
11.9331,461066
11.9405,468319
11.9479,875517
11.9552,1308604
11.9626,1302364
11.97,1364745
11.9774,1768878
11.9848,2131323
11.9921,2479405
11.9995,2121939
12.0069,1085689
12.0143,974701
12.0216,1551344
12.029,1533950
12.0364,876177
12.0438,564662
12.0511,605510
12.0585,887272
12.0659,1529770
12.0733,1984526
12.0806,1347005
12.088,750284
12.0954,596719
12.1028,565584
12.1102,590179
12.1175,751665
12.1249,1072122
12.1323,1209048
12.1397,1332334
12.147,2168831
12.1544,4052615
12.1618,4263288
12.1692,2428876
12.1765,1551331
12.1839,1650651
12.1913,1688694
12.1987,1256979
12.206,974260
12.2134,1381085
12.2208,1530901
12.2282,969614
12.2355,621921
12.2429,659748
12.2503,875484
12.2577,1274115
12.2651,2089574
12.2724,2091168
12.2798,1679887
12.2872,2493187
12.2946,3219449
12.3019,2332632
12.3093,1894224
12.3167,1854849
12.3241,1615332
12.3314,1502048
12.3388,1234963
12.3462,857430
12.3536,723854
12.3609,810337
12.3683,751590
12.3757,594636
12.3831,616223
12.3905,638469
12.3978,610313
12.4052,617611
12.4126,736050
12.42,1140981
12.4273,1351059
12.4347,997615
12.4421,660611
12.4495,521384
12.4568,488341
12.4642,810708
12.4716,1315222
12.479,1316962
12.4863,929896
12.4937,734804
12.5011,685587
12.5085,656949
12.5159,972608
12.5232,2346938
12.5306,3466445
12.538,2358511
12.5454,1039130
12.5527,624430
12.5601,620948
12.5675,719286
12.5749,794920
12.5822,643146
12.5896,479953
12.597,487735
12.6044,661042
12.6117,850576
12.6191,849036
12.6265,689833
12.6339,611727
12.6413,767485
12.6486,906329
12.656,931207
12.6634,1139669
12.6708,1416230
12.6781,2137400
12.6855,2061402
12.6929,977288
12.7003,474627
12.7076,442194
12.715,651478
12.7224,1159605
12.7298,1380836
12.7371,1151651
12.7445,1189653
12.7519,1154964
12.7593,933695
12.7666,1015577
12.774,1215660
12.7814,1277393
12.7888,1276903
12.7962,1600203
12.8035,2707313
12.8109,3846601
12.8183,3349623
12.8257,1925909
12.833,1562339
12.8404,1659002
12.8478,1460429
12.8552,995288
12.8625,859222
12.8699,1021263
12.8773,971074
12.8847,1255819
12.892,2328823
12.8994,2833870
12.9068,2157417
12.9142,2279015
12.9216,3246701
12.9289,4306498
12.9363,3181717
12.9437,1668029
12.9511,1046457
12.9584,997743
12.9658,1378918
12.9732,1434237
12.9806,1132303
12.9879,1139460
12.9953,1370193
13.0027,1333744
13.0101,1177515
13.0174,1059790
13.0248,1287633
13.0322,1867502
13.0396,1966992
13.047,1659197
13.0543,1640255
13.0617,1970695
13.0691,1706603
13.0765,1393131
13.0838,1627791
13.0912,2073842
13.0986,2240568
13.106,1658876
13.1133,952220
13.1207,809838
13.1281,921604
13.1355,888675
13.1428,996106
13.1502,1701007
13.1576,2559126
13.165,2567014
13.1723,1568247
13.1797,1059836
13.1871,1216468
13.1945,1096052
13.2019,737684
13.2092,696401
13.2166,888198
13.224,829667
13.2314,611592
13.2387,580146
13.2461,625954
13.2535,604978
13.2609,748381
13.2682,862384
13.2756,840235
13.283,872664
13.2904,1053230
13.2977,1219833
13.3051,934189
13.3125,865124
13.3199,1269494
13.3273,1323632
13.3346,963309
13.342,711632
13.3494,650325
13.3568,609272
13.3641,585821
13.3715,872876
13.3789,1281650
13.3863,1197856
13.3936,1013110
13.401,1360767
13.4084,1600664
13.4158,1247093
13.4231,1052836
13.4305,812931
13.4379,654427
13.4453,557227
13.4527,580700
13.46,755595
13.4674,953589
13.4748,1507751
13.4822,1990775
13.4895,1836518
13.4969,1681448
13.5043,1445613
13.5117,1585532
13.519,2405331
13.5264,2297107
13.5338,1338039
13.5412,765513
13.5485,543154
13.5559,514773
13.5633,608782
13.5707,684576
13.578,724675
13.5854,1005267
13.5928,1291641
13.6002,1143364
13.6076,1115349
13.6149,1401318
13.6223,1374782
13.6297,1104953
13.6371,1043626
13.6444,860002
13.6518,588396
13.6592,557521
13.6666,564244
13.6739,485982
13.6813,436907
13.6887,482915
13.6961,522478
13.7034,662805
13.7108,1075126
13.7182,1256613
13.7256,1109421
13.733,1062470
13.7403,1501671
13.7477,2251789
13.7551,2008835
13.7625,1266429
13.7698,1144449
13.7772,1079881
13.7846,973684
13.792,889239
13.7993,735136
13.8067,591397
13.8141,496550
13.8215,405858
13.8288,412452
13.8362,451664
13.8436,426592
13.851,417674
13.8584,679571
13.8657,1030996
13.8731,1017007
13.8805,717655
13.8879,516789
13.8952,506376
13.9026,503518
13.91,427066
13.9174,448014
13.9247,599940
13.9321,684897
13.9395,649478
13.9469,582138
13.9542,533291
13.9616,735485
13.969,1016762
13.9764,909079
13.9837,627199
13.9911,669853
13.9985,685191
14.0059,539685
14.0133,462409
14.0206,516205
14.028,591384
14.0354,636816
14.0428,532108
14.0501,442939
14.0575,437835
14.0649,414824
14.0723,423490
14.0796,422010
14.087,381479
14.0944,373360
14.1018,447803
14.1091,735802
14.1165,1111433
14.1239,917579
14.1313,686005
14.1387,792710
14.146,630402
14.1534,380006
14.1608,351522
14.1682,403563
14.1755,364481
14.1829,298604
14.1903,251864
14.1977,215955
14.205,219825
14.2124,247195
14.2198,311096
14.2272,495398
14.2345,569941
14.2419,496081
14.2493,435110
14.2567,398214
14.2641,343007
14.2714,290371
14.2788,284947
14.2862,392775
14.2936,538925
14.3009,551242
14.3083,463992
14.3157,352325
14.3231,273683
14.3304,269533
14.3378,353011
14.3452,427887
14.3526,422267
14.3599,388867
14.3673,400593
14.3747,366204
14.3821,300469
14.3895,269050
14.3968,335744
14.4042,500966
14.4116,516511
14.419,359602
14.4263,255979
14.4337,232277
14.4411,237625
14.4485,247440
14.4558,261602
14.4632,297710
14.4706,410871
14.478,582407
14.4853,610477
14.4927,472692
14.5001,386575
14.5075,394169
14.5148,349815
14.5222,276800
14.5296,231085
14.537,194229
14.5444,217024
14.5517,230470
14.5591,186116
14.5665,163170
14.5739,175678
14.5812,202042
14.5886,200845
14.596,186777
14.6034,206999
14.6107,255636
14.6181,289512
14.6255,294503
14.6329,254305
14.6402,212600
14.6476,209376
14.655,217160
14.6624,196504
14.6698,182664
14.6771,174676
14.6845,156406
14.6919,154332
14.6993,164511
14.7066,206487
14.714,255317
14.7214,246352
14.7288,205234
14.7361,162310
14.7435,143407
14.7509,171413
14.7583,264160
14.7656,273932
14.773,178841
14.7804,143079
14.7878,134681
14.7952,134935
14.8025,127284
14.8099,123365
14.8173,138128
14.8247,164944
14.832,155346
14.8394,136078
14.8468,147751
14.8542,138650
14.8615,128003
14.8689,133999
14.8763,136774
14.8837,139384
14.891,124363
14.8984,104117
14.9058,98992
14.9132,97187
14.9205,104409
14.9279,112492
14.9353,106582
14.9427,103036
14.9501,104533
14.9574,101193
14.9648,99068
14.9722,107302
14.9796,117292
14.9869,117394
14.9943,109457
15.0017,104849
15.0091,99143
15.0164,94780
15.0238,99269
15.0312,107713
15.0386,105581
15.0459,90803
15.0533,90232
15.0607,102826
15.0681,116818
15.0755,134861
15.0828,127016
15.0902,112472
15.0976,110146
15.105,107597
15.1123,97971
15.1197,88648
15.1271,92379
15.1345,105988
15.1418,111501
15.1492,104910
15.1566,96239
15.164,94896
15.1713,106641
15.1787,116396
15.1861,109254
15.1935,103619
15.2009,93499
15.2082,89946
15.2156,86630
15.223,85408
15.2304,86980
15.2377,90134
15.2451,91180
15.2525,91643
15.2599,94657
15.2672,95465
15.2746,86410
15.282,78240
15.2894,71172
15.2967,69134
15.3041,81920
15.3115,121976
15.3189,132902
15.3262,95065
15.3336,75186
15.341,74502
15.3484,75060
15.3558,75163
15.3631,80043
15.3705,81027
15.3779,72365
15.3853,70242
15.3926,70910
15.4,67134
15.4074,63782
15.4148,64877
15.4221,67146
15.4295,68419
15.4369,74745
15.4443,88241
15.4516,85217
15.459,75738
15.4664,69340
15.4738,64603
15.4812,61709
15.4885,61454
15.4959,60178
15.5033,59756
15.5107,59542
15.518,60146
15.5254,62116
15.5328,62780
15.5402,65951
15.5475,63766
15.5549,58380
15.5623,57325
15.5697,56342
15.577,59500
15.5844,59109
15.5918,62375
15.5992,76126
15.6066,98827
15.6139,91460
15.6213,71733
15.6287,62185
15.6361,59371
15.6434,59047
15.6508,58040
15.6582,58312
15.6656,61371
15.6729,61126
15.6803,59830
15.6877,59611
15.6951,59068
15.7024,58117
15.7098,57546
15.7172,56802
15.7246,56961
15.7319,54531
15.7393,55543
15.7467,61064
15.7541,60822
15.7615,57311
15.7688,57883
15.7762,57069
15.7836,56502
15.791,56928
15.7983,55897
15.8057,56951
15.8131,55269
15.8205,57191
15.8278,55199
15.8352,55450
15.8426,55332
15.85,54114
15.8573,54722
15.8647,54684
15.8721,53797
15.8795,54563
15.8869,54210
15.8942,55040
15.9016,53903
15.909,54307
15.9164,55963
15.9237,55489
15.9311,56082
15.9385,55065
15.9459,55241
15.9532,55766
15.9606,54353
15.968,54729
15.9754,53983
15.9827,54154
15.9901,55787
15.9975,56424
16.0049,56055
16.0123,55159
16.0196,55607
16.027,56120
16.0344,57403
16.0418,57717
16.0491,58246
16.0565,59460
16.0639,59254
16.0712,56074
16.0786,54909
16.086,54917
16.0934,55769
16.1008,56741
16.1081,57271
16.1155,55704
16.1229,55743
16.1303,56058
16.1377,58273
16.145,57523
16.1524,59153
16.1598,57592
16.1671,56969
16.1745,57494
16.1819,56019
16.1893,59376
16.1967,58888
16.204,58984
16.2114,56342
16.2188,56145
16.2262,56178
16.2335,57734
16.2409,56321
16.2483,55395
16.2557,55904
16.263,55325
16.2704,57216
16.2778,57507
16.2852,59520
16.2925,60119
16.2999,61681
16.3073,59362
16.3147,60197
16.3221,58804
16.3294,59718
16.3368,58960
16.3442,60273
16.3516,62278
16.3589,60238
16.3663,60008
16.3737,60069
16.3811,59934
16.3884,58383
16.3958,59268
16.4032,58918
16.4106,59164
16.418,58114
16.4253,58914
16.4327,58943
16.4401,58859
16.4475,58639
16.4548,58004
16.4622,57962
16.4696,58393
16.4769,58242
16.4843,58438
16.4917,58811
16.4991,57694
16.5065,58260
16.5138,58899
16.5212,60274
16.5286,57859
16.536,58023
16.5434,58503
16.5507,58639
16.5581,59655
16.5655,58649
16.5728,59196
16.5802,58956
16.5876,60124
16.595,61502
16.6024,64232
16.6097,65978
16.6171,64992
16.6245,66908
16.6319,64947
16.6392,62041
16.6466,63707
16.654,62136
16.6614,61475
16.6687,59915
16.6761,61488
16.6835,61975
16.6909,62035
16.6983,61095
16.7056,60761
16.713,61636
16.7204,60250
16.7278,61835
16.7351,61968
16.7425,61846
16.7499,64002
16.7572,65739
16.7646,64049
16.772,63916
16.7794,62169
16.7868,61284
16.7941,61130
16.8015,61423
16.8089,61229
16.8163,60804
16.8237,61408
16.831,62256
16.8384,61554
16.8458,60543
16.8531,60062
16.8605,60627
16.8679,61999
16.8753,61270
16.8827,60938
16.89,60799
16.8974,62315
16.9048,61600
16.9122,63009
16.9195,61792
16.9269,62446
16.9343,61263
16.9417,63188
16.9491,63162
16.9564,63707
16.9638,63453
16.9712,65558
16.9785,66204
16.9859,67542
16.9933,65528
17.0007,69036
17.0081,68972
17.0154,70681
17.0228,69667
17.0302,70855
17.0376,71828
17.0449,72934
17.0523,71824
17.0597,73134
17.0671,71776
17.0744,70872
17.0818,70717
17.0892,72539
17.0966,76826
17.104,79869
17.1113,77495
17.1187,72977
17.1261,70769
17.1335,68584
17.1408,68795
17.1482,68216
17.1556,68365
17.1629,65234
17.1703,65643
17.1777,64722
17.1851,65920
17.1925,64933
17.1998,64013
17.2072,64263
17.2146,63621
17.222,64027
17.2294,64706
17.2367,64290
17.2441,63715
17.2515,65011
17.2588,65996
17.2662,67420
17.2736,65799
17.281,65680
17.2884,65548
17.2957,64549
17.3031,64463
17.3105,64521
17.3179,63663
17.3252,63933
17.3326,65381
17.34,64751
17.3474,66215
17.3547,64842
17.3621,65382
17.3695,64587
17.3769,63725
17.3843,62482
17.3916,64141
17.399,64861
17.4064,63509
17.4138,65209
17.4211,63494
17.4285,64916
17.4359,64181
17.4433,64838
17.4506,63182
17.458,63333
17.4654,62722
17.4728,62946
17.4801,64200
17.4875,69043
