D:\Data GC-MS-77B\2017\SEPTEMBER\11-09-17\51734-17-2-YA.D 11 Sep 17  03:30 pm
Start of data points
1.29377,8174
1.3005,7966
1.30725,8174
1.31398,8088
1.32073,21437
1.32748,559052
1.33422,2645926
1.34097,5966840
1.3477,5906528
1.35445,5872180
1.36118,5843098
1.36793,5842457
1.37468,5841652
1.38142,5860264
1.38817,5862496
1.3949,5873551
1.40165,5893309
1.40838,5910109
1.41513,5942004
1.42188,5960893
1.42862,5999545
1.43537,6013236
1.4421,6003512
1.44885,5982788
1.45558,5888306
1.46233,5778727
1.46908,5627072
1.47582,5501180
1.48257,5252866
1.4893,4963584
1.51017,12011935
1.51753,10964555
1.52492,10021353
1.5323,9141105
1.53967,8346137
1.54705,7671182
1.55442,7144895
1.5618,6709031
1.56918,6390406
1.57655,6110690
1.58393,5841311
1.5913,5673425
1.59868,5491376
1.60605,5339143
1.61343,5223038
1.62082,5094580
1.62818,5226095
1.63557,5071577
1.64293,4930210
1.65032,4765175
1.6577,4582950
1.66507,4410565
1.67245,4234165
1.67982,4043176
1.6872,3810683
1.69457,3600502
1.70195,3417531
1.70933,3252616
1.7167,3071359
1.72408,2901718
1.73145,2717873
1.73883,2553113
1.74622,2371813
1.75358,2228578
1.76097,2082011
1.76833,1940943
1.77572,1829211
1.78308,1665704
1.79047,1546921
1.79785,1432838
1.80522,1329814
1.8126,1265401
1.81997,1273425
1.82735,1118951
1.83473,1043384
1.8421,963662
1.84948,893156
1.85685,824896
1.86423,830548
1.8716,718464
1.87898,674676
1.88637,642904
1.89373,631073
1.90112,548318
1.90848,506084
1.91587,467924
1.92325,429215
1.93062,412567
1.938,375315
1.94537,342204
1.95275,318301
1.96012,328960
1.9675,286163
1.97488,263550
1.98225,246645
1.98963,233504
1.997,212175
2.00438,198590
2.01177,183851
2.01913,185443
2.02652,164728
2.03388,153971
2.04127,144934
2.04863,138752
2.05602,140820
2.0634,124710
2.07077,120471
2.07815,111413
2.08552,107756
2.0929,103546
2.10027,97126
2.10765,92741
2.11503,87187
2.1224,83829
2.12978,86366
2.13715,74549
2.14453,71656
2.15192,66791
2.15928,64527
2.16667,60709
2.17403,58629
2.18142,60975
2.18878,56004
2.19617,52220
2.20355,49606
2.21092,47507
2.2183,46965
2.22567,45174
2.23305,44688
2.24043,41751
2.2478,41911
2.25518,42819
2.26255,41586
2.26993,42377
2.2773,41706
2.28468,38701
2.29207,38085
2.29943,37664
2.30682,35752
2.31418,36525
2.32157,35714
2.32895,34853
2.33632,34252
2.3437,34019
2.35107,33568
2.35845,34371
2.36582,32889
2.3732,31882
2.38058,31362
2.38795,31203
2.39533,31277
2.4027,30905
2.41008,30108
2.41747,30251
2.42483,30816
2.43222,31345
2.43958,29844
2.44697,29617
2.45433,30970
2.46172,32599
2.4691,32506
2.47647,31010
2.48385,30816
2.49122,32577
2.4986,31982
2.50598,34143
2.51335,44131
2.52073,53305
2.5281,58270
2.53548,58660
2.54285,59171
2.55023,58916
2.55762,55985
2.56498,56186
2.57237,51568
2.57973,47660
2.58712,45765
2.5945,43372
2.60187,43350
2.60925,42647
2.61662,41766
2.624,40923
2.63137,38872
2.63875,41402
2.64613,38210
2.6535,36128
2.66088,35753
2.66825,34324
2.67563,34474
2.68302,33853
2.69038,32535
2.69777,33558
2.70513,33829
2.71252,34196
2.71988,33465
2.72727,34793
2.73465,35098
2.74202,35570
2.7494,36506
2.75677,36812
2.76415,38366
2.77152,37267
2.7789,37177
2.78628,36432
2.79365,34968
2.80103,35028
2.8084,34278
2.81578,34396
2.82317,36338
2.83053,47100
2.83792,51160
2.84528,51764
2.85267,51063
2.86003,49723
2.86742,48818
2.8748,46697
2.88217,44462
2.88955,41103
2.89692,39271
2.9043,38134
2.91168,37356
2.91905,36466
2.92643,34410
2.9338,33934
2.94118,34150
2.94855,33110
2.95593,32018
2.96332,31964
2.97068,30683
2.97807,31095
2.98543,32308
2.99282,32081
3.0002,31253
3.00757,31829
3.01495,31076
3.02232,30839
3.0297,30497
3.03707,32564
3.04445,32569
3.05183,31030
3.0592,31399
3.06658,31991
3.07395,35201
3.08133,47295
3.08872,60606
3.09608,66876
3.10347,65737
3.11083,62987
3.11822,63348
3.12558,58187
3.13297,51095
3.14035,47885
3.14772,44616
3.1551,43573
3.16247,41344
3.16985,39714
3.17723,37562
3.1846,37643
3.19198,37285
3.19935,36971
3.20673,36480
3.2141,39119
3.22148,36323
3.22887,35377
3.23623,35270
3.24362,34726
3.25098,34273
3.25837,35580
3.26575,35604
3.27312,35904
3.2805,34676
3.28787,34356
3.29525,36326
3.30262,34322
3.31,32934
3.31738,33142
3.32475,32933
3.33213,32459
3.3395,36153
3.34688,35795
3.35425,36489
3.36163,36594
3.36902,37089
3.37638,35304
3.38377,34694
3.39113,35030
3.39852,33499
3.4059,32117
3.41327,32490
3.42065,33102
3.42802,33177
3.4354,34469
3.44277,33500
3.45015,32582
3.45753,33199
3.4649,34596
3.47228,34181
3.47965,33587
3.48703,36234
3.49442,35379
3.50178,34997
3.50917,33819
3.51653,38342
3.52392,43662
3.53128,50480
3.53867,50802
3.54605,51211
3.55342,51770
3.5608,59056
3.56817,79006
3.57555,89227
3.58293,90137
3.5903,85030
3.59768,77977
3.60505,70983
3.61243,67256
3.6198,63108
3.62718,62729
3.63457,57615
3.64193,56885
3.64932,49501
3.65668,48000
3.66407,44583
3.67145,42438
3.67882,42111
3.6862,48473
3.69357,56129
3.70095,61397
3.70832,63505
3.7157,59764
3.72308,57618
3.73045,51680
3.73783,48737
3.7452,43435
3.75258,42008
3.75997,37473
3.76733,36045
3.77472,35174
3.78208,37745
3.78947,41023
3.79683,44316
3.80422,44280
3.8116,43646
3.81897,44501
3.82635,44739
3.83372,47781
3.8411,49810
3.84848,51571
3.85585,49007
3.86323,46513
3.8706,43018
3.87798,42459
3.88535,43498
3.89273,39527
3.90012,38352
3.90748,41520
3.91487,61903
3.92223,93070
3.92962,109855
3.93698,109487
3.94437,100842
3.95175,87078
3.95912,73825
3.9665,64642
3.97387,54796
3.98125,51308
3.98863,46251
3.996,43968
4.00338,47144
4.01075,52363
4.01813,52237
4.0255,51156
4.03288,48889
4.04027,49242
4.04763,46416
4.05502,46074
4.06238,45140
4.06977,42977
4.07715,40943
4.08452,40577
4.0919,39927
4.09927,40451
4.10665,37795
4.11402,38550
4.1214,37517
4.12878,37940
4.13615,38662
4.14353,38893
4.1509,37304
4.15828,37687
4.16567,35255
4.17303,33102
4.18042,32978
4.18778,34777
4.19517,37557
4.20253,38935
4.20992,39285
4.2173,40901
4.22467,38906
4.23205,38839
4.23942,37158
4.2468,38285
4.25418,41395
4.26155,47226
4.26893,51192
4.2763,51032
4.28368,47381
4.29105,45666
4.29843,48301
4.30582,48115
4.31318,51346
4.32057,51728
4.32793,56302
4.33532,60787
4.3427,75276
4.35007,93864
4.35745,97823
4.36482,89825
4.3722,77104
4.37957,69087
4.38695,76494
4.39433,79357
4.4017,77376
4.40908,73465
4.41645,68057
4.42383,64124
4.43122,61045
4.43858,57887
4.44597,57429
4.45333,58129
4.46072,56087
4.46808,51252
4.47547,47659
4.48285,44244
4.49022,42335
4.4976,41941
4.50497,41740
4.51235,43290
4.51972,46056
4.5271,48457
4.53448,51461
4.54185,47648
4.54923,43296
4.5566,49649
4.56398,62434
4.57137,71435
4.57873,67139
4.58612,62052
4.59348,59691
4.60087,62505
4.60823,64857
4.61562,64325
4.623,61169
4.63037,57204
4.63775,51511
4.64512,49725
4.6525,48714
4.65988,46191
4.66725,43629
4.67463,47995
4.682,68623
4.68938,108101
4.69675,133306
4.70413,132838
4.71152,108724
4.71888,83970
4.72627,68092
4.73363,56374
4.74102,49695
4.7484,46504
4.75577,43472
4.76315,49600
4.77052,73652
4.7779,143834
4.78527,198638
4.79265,201089
4.80003,169575
4.8074,118354
4.81478,84597
4.82215,69656
4.82953,60668
4.83692,57176
4.84428,56252
4.85167,59906
4.85903,67029
4.86642,76553
4.87378,76822
4.88117,68680
4.88855,59763
4.89592,56856
4.9033,64060
4.91067,63725
4.91805,59290
4.92543,53982
4.9328,55683
4.94018,73145
4.94755,76595
4.95493,81513
4.9623,91960
4.96968,100580
4.97707,96624
4.98443,89154
4.99182,98282
4.99918,127257
5.00657,125673
5.01395,106167
5.02132,98086
5.0287,91815
5.03607,80512
5.04345,69747
5.05082,67031
5.0582,75152
5.06558,98227
5.07295,124355
5.08033,127209
5.0877,99664
5.09508,73279
5.10245,86508
5.10983,162225
5.11722,228797
5.12458,204857
5.13197,137551
5.13933,89155
5.14672,72474
5.1541,61220
5.16147,52701
5.16885,46543
5.17622,44024
5.1836,42078
5.19097,46406
5.19835,57028
5.20573,64132
5.2131,63064
5.22048,70213
5.22785,94395
5.23523,130396
5.24262,126582
5.24998,94122
5.25737,72982
5.26473,72801
5.27212,83628
5.27948,78810
5.28687,66514
5.29425,54966
5.30162,52335
5.309,52039
5.31637,54398
5.32375,61175
5.33113,68725
5.3385,68577
5.34588,62041
5.35325,53850
5.36063,48326
5.368,48437
5.37538,50313
5.38277,59926
5.39013,88148
5.39752,113196
5.40488,119372
5.41227,104774
5.41965,88667
5.42702,68116
5.4344,53747
5.44177,49670
5.44915,55701
5.45652,67721
5.4639,74147
5.47128,76840
5.47865,78963
5.48603,77757
5.4934,78532
5.50078,109864
5.50817,175703
5.51553,207774
5.52292,181522
5.53028,126053
5.53767,106483
5.54503,110465
5.55242,96776
5.5598,74506
5.56717,61746
5.57455,56558
5.58192,61245
5.5893,73327
5.59668,78837
5.60405,84891
5.61143,97954
5.6188,104575
5.62618,90888
5.63355,77843
5.64093,76012
5.64832,76536
5.65568,68601
5.66307,65026
5.67043,69379
5.67782,72905
5.68518,71701
5.69257,64825
5.69995,52277
5.70732,53609
5.7147,63370
5.72207,74624
5.72945,78617
5.73683,67169
5.7442,56420
5.75158,54286
5.75895,71512
5.76633,94646
5.7737,95417
5.78108,80838
5.78847,78185
5.79583,81420
5.80322,69499
5.81058,58225
5.81797,73088
5.82535,105284
5.83272,133503
5.8401,152818
5.84747,142374
5.85485,109508
5.86222,118290
5.8696,172667
5.87698,218486
5.88435,195580
5.89173,155263
5.8991,121486
5.90648,109126
5.91387,88803
5.92123,71805
5.92862,63729
5.93598,63686
5.94337,93450
5.95073,151559
5.95812,172170
5.9655,139911
5.97287,95593
5.98025,61565
5.98762,53636
5.995,65937
6.00238,77693
6.00975,94813
6.01713,101230
6.0245,96629
6.03188,87250
6.03925,95023
6.04663,96191
6.05402,80673
6.06138,65606
6.06877,56492
6.07613,55180
6.08352,59203
6.0909,68835
6.09827,79343
6.10565,90252
6.11302,83817
6.1204,102263
6.12777,127317
6.13515,124539
6.14253,101977
6.1499,95578
6.15728,106472
6.16465,107952
6.17203,102065
6.17942,80129
6.18678,70983
6.19417,78979
6.20153,88239
6.20892,82222
6.21628,81971
6.22367,98098
6.23105,94522
6.23842,75373
6.2458,84623
6.25317,166746
6.26055,275364
6.26792,331559
6.2753,452093
6.28268,412283
6.29005,206912
6.29743,96861
6.3048,68585
6.31218,58761
6.31957,62247
6.32693,86936
6.33432,86079
6.34168,63363
6.34907,46279
6.35643,39920
6.36382,39232
6.3712,41630
6.37857,57067
6.38595,65624
6.39332,58218
6.4007,47043
6.40808,54302
6.41545,67170
6.42283,73663
6.4302,77076
6.43758,89833
6.44495,85599
6.45233,72868
6.45972,63754
6.46708,62252
6.47447,64679
6.48183,66059
6.48922,69958
6.4966,79867
6.50397,82118
6.51135,69059
6.51872,61167
6.5261,95925
6.53347,160556
6.54085,147828
6.54823,83714
6.5556,54344
6.56298,51865
6.57035,61160
6.57773,65781
6.58512,84530
6.59248,146701
6.59987,180213
6.60723,147561
6.61462,99123
6.62198,81012
6.62937,65002
6.63675,54468
6.64412,56558
6.6515,66234
6.65887,83268
6.66625,100528
6.67363,116395
6.681,137557
6.68838,134086
6.69575,103234
6.70313,89450
6.7105,120651
6.71788,142589
6.72527,113475
6.73263,78625
6.74002,70805
6.74738,69532
6.75477,78693
6.76215,85416
6.76952,77178
6.7769,63966
6.78427,61978
6.79165,67703
6.79902,75077
6.8064,77516
6.81378,71972
6.82115,76479
6.82853,91240
6.8359,89646
6.84328,91901
6.85067,89309
6.85803,89600
6.86542,91073
6.87278,105652
6.88017,119370
6.88753,109352
6.89492,108171
6.9023,139396
6.90967,176170
6.91705,183288
6.92442,116986
6.9318,64629
6.93917,86500
6.94655,174570
6.95393,214403
6.9613,168516
6.96868,135471
6.97605,182051
6.98343,339388
6.99082,388038
6.99818,220342
7.00557,110944
7.01293,103191
7.02032,104444
7.02768,91113
7.03507,82448
7.04245,83053
7.04982,104157
7.0572,208062
7.06457,284622
7.07195,190729
7.07933,126654
7.0867,111961
7.09408,93924
7.10145,83794
7.10883,83995
7.1162,75351
7.12358,68436
7.13097,63374
7.13833,71002
7.14572,78171
7.15308,74145
7.16047,71567
7.16785,80459
7.17522,88957
7.1826,104859
7.18997,136268
7.19735,134489
7.20472,144558
7.2121,152024
7.21948,122463
7.22685,105630
7.23423,94130
7.2416,131347
7.24898,205020
7.25637,198912
7.26373,130459
7.27112,130851
7.27848,191783
7.28587,217619
7.29323,190240
7.30062,161787
7.308,137696
7.31537,172795
7.32275,190131
7.33012,151978
7.3375,109151
7.34488,92937
7.35225,128053
7.35963,528013
7.367,1993686
7.37438,2890801
7.38175,1539192
7.38913,399325
7.39652,206242
7.40388,184073
7.41127,179543
7.41863,199377
7.42602,226960
7.4334,225419
7.44077,206370
7.44815,184755
7.45552,157240
7.4629,160945
7.47027,175477
7.47765,188465
7.48503,225342
7.4924,225464
7.49978,235786
7.50715,263228
7.51453,243037
7.5219,220375
7.52928,245059
7.53667,311255
7.54403,480263
7.55142,628384
7.55878,686709
7.56617,517380
7.57355,235484
7.58092,201416
7.5883,346506
7.59567,433791
7.60305,400261
7.61042,487991
7.6178,660334
7.62518,589170
7.63255,292735
7.63993,161624
7.6473,192028
7.65468,465865
7.66207,1088189
7.66943,1123012
7.67682,570038
7.68418,351295
7.69157,270699
7.69893,198604
7.70632,171443
7.7137,284358
7.72107,495191
7.72845,702073
7.73582,736196
7.7432,553350
7.75058,416777
7.75795,376654
7.76533,472524
7.7727,597954
7.78008,513518
7.78745,567959
7.79483,761910
7.80222,738345
7.80958,576008
7.81697,621848
7.82433,797119
7.83172,842100
7.8391,770016
7.84647,592922
7.85385,437229
7.86122,386051
7.8686,363237
7.87597,434432
7.88335,625785
7.89073,918547
7.8981,956660
7.90548,707747
7.91285,588896
7.92023,634209
7.92762,965855
7.93498,1927854
7.94237,2782855
7.94973,3082923
7.95712,2844755
7.96448,1632153
7.97187,883525
7.97925,1048127
7.98662,2246930
7.994,3788798
8.00137,3052599
8.00875,1328600
8.01613,870591
8.0235,1405373
8.03088,3974571
8.03825,6624102
8.04563,4686992
8.053,1676497
8.06038,1559236
8.06777,1557425
8.07513,942600
8.08252,556985
8.08988,592371
8.09727,1663254
8.10463,4417661
8.11202,5637650
8.1194,3239814
8.12677,1507483
8.13415,1174088
8.14152,1186706
8.1489,1367404
8.15628,1740641
8.16365,1834761
8.17103,1642520
8.1784,1494723
8.18578,1357384
8.19315,1150640
8.20053,1019382
8.20792,1078258
8.21528,1236994
8.22267,1361685
8.23003,1210000
8.23742,1096599
8.2448,940000
8.25217,884438
8.25955,1066290
8.26692,1583695
8.2743,2085041
8.28167,2177857
8.28905,1757953
8.29643,1789992
8.3038,2863924
8.31118,4023676
8.31855,3779862
8.32593,2701943
8.33332,2158015
8.34068,2325686
8.34807,2697997
8.35543,3007143
8.36282,3667884
8.37018,3750296
8.37757,3487394
8.38495,3931786
8.39232,7322095
8.3997,14450262
8.40707,21412884
8.41445,27052578
8.42183,23732896
8.4292,6117388
8.43658,3790737
8.44395,3044342
8.45133,3182908
8.4587,3094636
8.46608,3008004
8.47347,3543021
8.48083,3831651
8.48822,3595798
8.49558,3142408
8.50297,3213390
8.51035,3823627
8.51772,4092695
8.5251,4061694
8.53247,5867959
8.53985,11576020
8.54722,17016498
8.5546,13518275
8.56198,6261583
8.56935,4112621
8.57673,4534361
8.5841,5037722
8.59148,4347886
8.59887,4143276
8.60623,4129387
8.61362,4200957
8.62098,6040254
8.62837,7893465
8.63573,5886955
8.64312,3748189
8.6505,2582088
8.65787,2173821
8.66525,2647678
8.67262,3958582
8.68,4648379
8.68737,5752276
8.69475,6617226
8.70213,4959640
8.7095,3541143
8.71688,3939049
8.72425,5147343
8.73163,5388909
8.73902,5943860
8.74638,6486814
8.75377,5258990
8.76113,4657761
8.76852,4609158
8.77588,4479975
8.78327,4854124
8.79065,4962221
8.79802,4457491
8.8054,5132491
8.81277,5940991
8.82015,5089319
8.82753,4459880
8.8349,5691719
8.84228,8327841
8.84965,9956105
8.85703,9233367
8.8644,8455091
8.87178,7256761
8.87917,6592053
8.88653,5198187
8.89392,4235909
8.90128,4388604
8.90867,6488914
8.91605,10350004
8.92342,11190898
8.9308,10366498
8.93817,13973878
8.94555,13586560
8.95292,8492791
8.9603,6097299
8.96768,6631007
8.97505,9094833
8.98243,12937083
8.9898,13454084
8.99718,9644396
9.00457,8356740
9.01193,7990755
9.01932,10229724
9.02668,15902433
9.03407,18786600
9.04143,12444220
9.04882,8946635
9.0562,8559653
9.06357,6328445
9.07095,4791504
9.07832,5637227
9.0857,9155606
9.09308,14341384
9.10045,17014426
9.10783,15314925
9.1152,19176704
9.12258,24171168
9.12995,17559576
9.13733,8926855
9.14472,7921495
9.15208,6028984
9.15947,5625382
9.16683,7491953
9.17422,8595066
9.1816,8424730
9.18897,6893108
9.19635,5692111
9.20372,5931471
9.2111,6041834
9.21847,6107365
9.22585,6534803
9.23323,6227601
9.2406,4923523
9.24798,4383410
9.25535,5248547
9.26273,7795373
9.2701,9178090
9.27748,7805814
9.28487,6890738
9.29223,7009632
9.29962,7331154
9.30698,8909524
9.31437,10482424
9.32175,11269918
9.32912,10958155
9.3365,9099091
9.34387,8357462
9.35125,9922568
9.35862,13875877
9.366,19612684
9.37338,25602490
9.38075,32470130
9.38813,37673304
9.3955,39723576
9.40288,22281178
9.41027,9439711
9.41763,8775403
9.42502,10456153
9.43238,11441644
9.43977,10656158
9.44713,9651485
9.45452,9891269
9.4619,10900018
9.46927,14096182
9.47665,14951456
9.48402,13776660
9.4914,10234400
9.49878,8711541
9.50615,9058051
9.51353,8571393
9.5209,10464134
9.52828,11964099
9.53565,12786155
9.54303,15130275
9.55042,13538249
9.55778,7739154
9.56517,6186095
9.57253,6949274
9.57992,7761709
9.5873,7375128
9.59467,6216787
9.60205,5687445
9.60942,5363925
9.6168,6183279
9.62417,7973943
9.63155,10940336
9.63893,12185479
9.6463,9828052
9.65368,8448154
9.66105,8219772
9.66843,8298692
9.67582,9364528
9.68318,9982246
9.69057,9702406
9.69793,9616353
9.70532,9230928
9.71268,7594446
9.72007,6379432
9.72745,7146640
9.73482,8288673
9.7422,8088697
9.74957,8150145
9.75695,8086013
9.76433,7017438
9.7717,6361623
9.77908,6298805
9.78645,6019454
9.79383,6215455
9.8012,7242862
9.80858,8262255
9.81597,9430462
9.82333,14830733
9.83072,20099112
9.83808,18576426
9.84547,10644379
9.85283,9329318
9.86022,11767921
9.8676,10313081
9.87497,7489439
9.88235,6459866
9.88972,7114253
9.8971,10084601
9.90448,14018642
9.91185,13680860
9.91923,9668695
9.9266,7870325
9.93398,7605627
9.94135,9950471
9.94873,15058668
9.95612,15653426
9.96348,9886413
9.97087,8289943
9.97823,7505798
9.98562,6502117
9.993,6227438
10.0004,6440383
10.0078,9610074
10.0151,14754561
10.0225,14348076
10.0299,10637862
10.0373,8831551
10.0446,7223465
10.052,6659572
10.0594,8812405
10.0668,15922325
10.0741,21198528
10.0815,17018542
10.0889,7302003
10.0963,5200062
10.1036,5371351
10.111,5378585
10.1184,5245202
10.1258,5684693
10.1332,6346892
10.1405,5499616
10.1479,4361068
10.1553,4328896
10.1627,4762983
10.17,5132075
10.1774,5732424
10.1848,6439762
10.1922,6479435
10.1995,5760345
10.2069,5539184
10.2143,5351762
10.2217,4977839
10.229,6074982
10.2364,7413800
10.2438,7283142
10.2512,7139118
10.2586,10182719
10.2659,15815461
10.2733,23537402
10.2807,30661382
10.2881,32175090
10.2954,14775046
10.3028,7345729
10.3102,9138159
10.3176,8344729
10.3249,5939367
10.3323,5270900
10.3397,5465590
10.3471,7031880
10.3544,8350638
10.3618,8084575
10.3692,8617311
10.3766,7803965
10.3839,5991957
10.3913,5294644
10.3987,5940303
10.4061,7185287
10.4135,7339777
10.4208,5475556
10.4282,4180073
10.4356,4311409
10.443,4357083
10.4503,4256299
10.4577,5233143
10.4651,6589932
10.4725,6775103
10.4798,6118288
10.4872,4778651
10.4946,4266793
10.502,4345189
10.5093,4240893
10.5167,4445275
10.5241,4287739
10.5315,3793673
10.5389,3948507
10.5462,4214783
10.5536,4181771
10.561,4217911
10.5684,4034188
10.5757,3876071
10.5831,4041550
10.5905,4800178
10.5979,6483138
10.6052,7533947
10.6126,6773717
10.62,5200126
10.6274,4874341
10.6347,6036766
10.6421,6390146
10.6495,4816814
10.6569,3822110
10.6643,4504836
10.6716,5266118
10.679,5786337
10.6864,5688237
10.6938,5469478
10.7011,5188421
10.7085,4670104
10.7159,4928030
10.7233,5335161
10.7306,5358392
10.738,6344437
10.7454,5711597
10.7528,4108708
10.7601,4142340
10.7675,5136913
10.7749,4896873
10.7823,3930081
10.7896,4173381
10.797,6795028
10.8044,10156105
10.8118,10331199
10.8192,6796996
10.8265,3906788
10.8339,3240607
10.8413,3044731
10.8487,2849060
10.856,2703395
10.8634,2910062
10.8708,4141248
10.8782,4981253
10.8855,3687057
10.8929,2663378
10.9003,2607939
10.9077,2950629
10.915,3196085
10.9224,3172800
10.9298,2936502
10.9372,2452270
10.9446,2115607
10.9519,2237052
10.9593,2668112
10.9667,2853001
10.9741,2440214
10.9814,2446695
10.9888,2234417
10.9962,1946405
11.0036,2071306
11.0109,2321147
11.0183,2196254
11.0257,2052597
11.0331,1975602
11.0404,1930661
11.0478,1903189
11.0552,1935739
11.0626,2086205
11.07,2172260
11.0773,2157798
11.0847,1986804
11.0921,1838366
11.0995,2328217
11.1068,5623868
11.1142,11108395
11.1216,12197924
11.129,5893665
11.1363,2814983
11.1437,2362333
11.1511,1920028
11.1585,1904651
11.1658,1981360
11.1732,1940229
11.1806,2284502
11.188,2665413
11.1953,2327229
11.2027,1865277
11.2101,1602937
11.2175,1653451
11.2249,1834899
11.2322,1990450
11.2396,2022850
11.247,1955739
11.2544,1632184
11.2617,1317399
11.2691,1254391
11.2765,1225202
11.2839,1307032
11.2912,1328793
11.2986,1356333
11.306,1499955
11.3134,1641884
11.3207,1550648
11.3281,1355619
11.3355,1298687
11.3429,1293972
11.3503,1380258
11.3576,1393626
11.365,1291023
11.3724,1115366
11.3798,974059
11.3871,984602
11.3945,1083742
11.4019,1138002
11.4093,1164615
11.4166,1111419
11.424,899911
11.4314,757912
11.4388,792147
11.4461,898567
11.4535,954805
11.4609,990595
11.4683,1010415
11.4757,1057525
11.483,1256806
11.4904,1704778
11.4978,1730680
11.5052,1464125
11.5125,1255517
11.5199,1046936
11.5273,1089122
11.5347,1510947
11.542,1687154
11.5494,1332807
11.5568,1027849
11.5642,957731
11.5715,861489
11.5789,968592
11.5863,1318722
11.5937,1324662
11.6011,1123780
11.6084,844775
11.6158,800108
11.6232,1031063
11.6306,1244905
11.6379,1061170
11.6453,975167
11.6527,991209
11.6601,908943
11.6674,832107
11.6748,904443
11.6822,980581
11.6896,1102332
11.6969,1032387
11.7043,757583
11.7117,586190
11.7191,571372
11.7264,601536
11.7338,610446
11.7412,648064
11.7486,594946
11.756,544067
11.7633,515368
11.7707,473193
11.7781,506840
11.7855,519418
11.7928,521284
11.8002,563877
11.8076,637344
11.815,631233
11.8223,586638
11.8297,527868
11.8371,514866
11.8445,508397
11.8518,501392
11.8592,499843
11.8666,501987
11.874,470182
11.8814,421137
11.8887,417016
11.8961,428993
11.9035,603841
11.9109,1442984
11.9182,2223143
11.9256,1400228
11.933,621741
11.9404,473172
11.9477,435402
11.9551,452229
11.9625,483989
11.9699,542694
11.9772,538723
11.9846,503602
11.992,480196
11.9994,461547
12.0068,450496
12.0141,423419
12.0215,417838
12.0289,410524
12.0363,413472
12.0436,377045
12.051,333243
12.0584,323322
12.0658,342653
12.0731,363906
12.0805,343500
12.0879,350502
12.0953,378066
12.1026,348910
12.11,318617
12.1174,324306
12.1248,320874
12.1321,294986
12.1395,290103
12.1469,308141
12.1543,321134
12.1617,294896
12.169,275102
12.1764,268036
12.1838,276757
12.1912,278010
12.1985,265054
12.2059,246373
12.2133,244837
12.2207,233498
12.228,226455
12.2354,222928
12.2428,230990
12.2502,242316
12.2575,276778
12.2649,323971
12.2723,328813
12.2797,320356
12.2871,366603
12.2944,410964
12.3018,399899
12.3092,321315
12.3166,301264
12.3239,278269
12.3313,228902
12.3387,210887
12.3461,210520
12.3534,216581
12.3608,240769
12.3682,252326
12.3756,226803
12.3829,214144
12.3903,218651
12.3977,255263
12.4051,307880
12.4125,299556
12.4198,244327
12.4272,207052
12.4346,189098
12.442,185497
12.4493,192640
12.4567,204467
12.4641,230472
12.4715,236625
12.4788,187927
12.4862,164396
12.4936,166401
12.501,171795
12.5083,167846
12.5157,159620
12.5231,153208
12.5305,152393
12.5378,155254
12.5452,140893
12.5526,139405
12.56,143684
12.5674,157745
12.5747,148796
12.5821,146431
12.5895,149873
12.5969,151019
12.6042,148542
12.6116,150924
12.619,148721
12.6264,137760
12.6337,128759
12.6411,130889
12.6485,135424
12.6559,137965
12.6632,152424
12.6706,235737
12.678,402323
12.6854,352350
12.6928,189238
12.7001,134109
12.7075,125568
12.7149,150640
12.7223,207102
12.7296,250212
12.737,204124
12.7444,163939
12.7518,152000
12.7591,150602
12.7665,138520
12.7739,132712
12.7813,133698
12.7886,129495
12.796,121971
12.8034,115887
12.8108,111092
12.8182,108525
12.8255,107709
12.8329,106011
12.8403,106435
12.8477,109214
12.855,112966
12.8624,110454
12.8698,105855
12.8772,104466
12.8845,102483
12.8919,101696
12.8993,99177
12.9067,97477
12.914,92472
12.9214,91120
12.9288,91800
12.9362,98636
12.9435,103942
12.9509,96080
12.9583,90032
12.9657,83920
12.9731,85157
12.9804,83409
12.9878,86810
12.9952,98788
13.0026,106798
13.0099,110267
13.0173,103033
13.0247,98135
13.0321,93148
13.0394,84597
13.0468,80635
13.0542,88083
13.0616,93887
13.0689,91685
13.0763,84751
13.0837,79469
13.0911,76609
13.0985,84750
13.1058,92424
13.1132,87665
13.1206,80498
13.128,78330
13.1353,82596
13.1427,94166
13.1501,92895
13.1575,85911
13.1648,77363
13.1722,74937
13.1796,77010
13.187,78100
13.1943,74488
13.2017,82586
13.2091,85007
13.2165,77036
13.2239,71054
13.2312,68602
13.2386,66948
13.246,67908
13.2534,69779
13.2607,69671
13.2681,65599
13.2755,66646
13.2829,69824
13.2902,69414
13.2976,66585
13.305,62300
13.3124,61242
13.3197,62171
13.3271,63668
13.3345,61268
13.3419,61391
13.3493,61031
13.3566,59463
13.364,59827
13.3714,61584
13.3788,60495
13.3861,59005
13.3935,66412
13.4009,95199
13.4083,109975
13.4156,84079
13.423,64294
13.4304,59577
13.4378,60517
13.4451,60132
13.4525,58877
13.4599,62198
13.4673,64688
13.4746,71270
13.482,75145
13.4894,67230
13.4968,63742
13.5042,62104
13.5115,59146
13.5189,57551
13.5263,56174
13.5337,55540
13.541,53535
13.5484,51680
13.5558,53681
13.5632,53092
13.5705,52689
13.5779,51499
13.5853,52769
13.5927,54176
13.6,54890
13.6074,52567
13.6148,51078
13.6222,49981
13.6296,47546
13.6369,46722
13.6443,47289
13.6517,48561
13.6591,47685
13.6664,47683
13.6738,46268
13.6812,47642
13.6886,46565
13.6959,47964
13.7033,49757
13.7107,48822
13.7181,47392
13.7254,47430
13.7328,48654
13.7402,47808
13.7476,46323
13.755,45550
13.7623,47720
13.7697,46137
13.7771,45215
13.7845,44633
13.7918,44798
13.7992,44545
13.8066,44443
13.814,44278
13.8213,43908
13.8287,41381
13.8361,43173
13.8435,43609
13.8508,43177
13.8582,43197
13.8656,41424
13.873,42133
13.8803,41669
13.8877,40942
13.8951,41523
13.9025,42613
13.9099,45085
13.9172,43823
13.9246,40772
13.932,42076
13.9394,39878
13.9467,39576
13.9541,41556
13.9615,42508
13.9689,42898
13.9762,41911
13.9836,41092
13.991,40253
13.9984,39870
14.0057,39743
14.0131,40107
14.0205,39603
14.0279,40112
14.0353,40149
14.0426,40028
14.05,40014
14.0574,40852
14.0648,39871
14.0721,38620
14.0795,39193
14.0869,43127
14.0943,49755
14.1016,46669
14.109,40394
14.1164,39459
14.1238,38640
14.1311,38007
14.1385,38587
14.1459,38292
14.1533,37591
14.1607,38017
14.168,37967
14.1754,40292
14.1828,37701
14.1902,37744
14.1975,38245
14.2049,38713
14.2123,38159
14.2197,37883
14.227,36638
14.2344,36431
14.2418,36821
14.2492,35940
14.2565,35804
14.2639,35491
14.2713,35925
14.2787,37643
14.286,35535
14.2934,34977
14.3008,34319
14.3082,35299
14.3156,35345
14.3229,35728
14.3303,35585
14.3377,35234
14.3451,36057
14.3524,35511
14.3598,37577
14.3672,37571
14.3746,37672
14.3819,37686
14.3893,37024
14.3967,36592
14.4041,36090
14.4114,35791
14.4188,36024
14.4262,35418
14.4336,36772
14.441,35509
14.4483,35309
14.4557,36420
14.4631,36292
14.4705,36861
14.4778,36609
14.4852,36408
14.4926,35261
14.5,36018
14.5073,35679
14.5147,34933
14.5221,34726
14.5295,36050
14.5368,35170
14.5442,35781
14.5516,36580
14.559,35611
14.5664,36423
14.5737,35668
14.5811,35567
14.5885,35879
14.5959,36409
14.6032,35117
14.6106,36804
14.618,36011
14.6254,35614
14.6327,34957
14.6401,35184
14.6475,35843
14.6549,34239
14.6622,34214
14.6696,35179
14.677,34788
14.6844,35102
14.6917,36411
14.6991,35334
14.7065,36631
14.7139,39199
14.7213,37779
14.7286,36194
14.736,35317
14.7434,36396
14.7508,35618
14.7581,36637
14.7655,35917
14.7729,35637
14.7803,35835
14.7876,34967
14.795,36093
14.8024,36043
14.8098,34828
14.8171,34028
14.8245,35224
14.8319,34818
14.8393,35090
14.8467,34412
14.854,34252
14.8614,34862
14.8688,34098
14.8762,36634
14.8835,36461
14.8909,35917
14.8983,36566
14.9057,35968
14.913,36024
14.9204,35386
14.9278,34980
14.9352,35176
14.9425,34968
14.9499,34806
14.9573,34128
14.9647,33873
14.9721,34523
14.9794,34717
14.9868,34494
14.9942,34623
15.0016,34172
15.0089,35450
15.0163,34118
15.0237,34736
15.0311,34435
15.0384,35731
15.0458,35066
15.0532,34814
15.0606,34191
15.0679,34153
15.0753,34723
15.0827,35566
15.0901,34022
15.0975,33701
15.1048,35516
15.1122,34696
15.1196,33686
15.127,35035
15.1343,36463
15.1417,35044
15.1491,34773
15.1565,34759
15.1638,34775
15.1712,34936
15.1786,35411
15.186,36079
15.1933,35555
15.2007,35111
15.2081,34264
15.2155,35018
15.2228,34886
15.2302,35696
15.2376,35880
15.245,35678
15.2524,35726
15.2597,37489
15.2671,37088
15.2745,37691
15.2819,37380
15.2892,38166
15.2966,37247
15.304,38165
15.3114,39302
15.3187,41041
15.3261,42997
15.3335,43601
15.3409,46281
15.3482,48210
15.3556,49591
15.363,49180
15.3704,50567
15.3778,50424
15.3851,51021
15.3925,54938
15.3999,53771
15.4073,53995
15.4146,52466
15.422,55252
15.4294,55590
15.4368,53014
15.4441,53062
15.4515,52897
15.4589,55430
15.4663,57113
15.4736,61698
15.481,68974
15.4884,72192
15.4958,71652
15.5032,69525
15.5105,65835
15.5179,63536
15.5253,61375
15.5327,61010
15.54,59277
15.5474,54731
15.5548,56862
15.5622,55499
15.5695,56099
15.5769,58074
15.5843,63601
15.5917,61846
15.599,61195
15.6064,62350
15.6138,58297
15.6212,59235
15.6285,55362
15.6359,52079
15.6433,50563
15.6507,49354
15.6581,48304
15.6654,48410
15.6728,45163
15.6802,45409
15.6876,47320
15.6949,45056
15.7023,43017
15.7097,42569
15.7171,42652
15.7244,43065
15.7318,44343
15.7392,44928
15.7466,44828
15.7539,46045
15.7613,44466
15.7687,44903
15.7761,46240
15.7835,46241
15.7908,47258
15.7982,46040
15.8056,44819
15.813,45856
15.8203,44617
15.8277,43339
15.8351,43461
15.8425,42234
15.8498,43936
15.8572,43726
15.8646,43591
15.872,43897
15.8793,44156
15.8867,43407
15.8941,44564
15.9015,43031
15.9089,43864
15.9162,44225
15.9236,45103
15.931,43846
15.9384,43725
15.9457,44680
15.9531,43788
15.9605,44408
15.9679,44648
15.9752,44444
15.9826,45238
15.99,45627
15.9974,45574
16.0047,44791
16.0121,44737
16.0195,45112
16.0269,47084
16.0342,44891
16.0416,45976
16.049,44741
16.0564,46338
16.0637,46782
16.0711,44803
16.0785,46025
16.0859,46677
16.0933,46307
16.1006,50553
16.108,48505
16.1154,47860
16.1228,46469
16.1301,46798
16.1375,48307
16.1449,47700
16.1523,48644
16.1596,47849
16.167,48543
16.1744,47822
16.1818,49271
16.1892,49133
16.1965,49546
16.2039,49065
16.2113,48090
16.2187,47936
16.226,48489
16.2334,48237
16.2408,47860
16.2481,48839
16.2555,48528
16.2629,48524
16.2703,47973
16.2777,48726
16.285,49548
16.2924,49478
16.2998,49649
16.3072,49418
16.3146,51924
16.3219,49389
16.3293,49677
16.3367,50457
16.344,50455
16.3514,52353
16.3588,51073
16.3662,51227
16.3736,53041
16.3809,52233
16.3883,51543
16.3957,50841
16.4031,52032
16.4104,50683
16.4178,51651
16.4252,50769
16.4326,50763
16.44,52215
16.4473,50372
16.4547,50053
16.4621,51061
16.4694,51806
16.4768,51654
16.4842,51714
16.4916,51554
16.499,50852
16.5063,53028
16.5137,51027
16.5211,51321
16.5284,51284
16.5358,51310
16.5432,51896
16.5506,52546
16.558,50897
16.5653,52154
16.5727,52389
16.5801,51826
16.5875,54732
16.5949,52378
16.6022,52755
16.6096,51711
16.617,52432
16.6244,53022
16.6317,52163
16.6391,52368
16.6465,54409
16.6538,55018
16.6612,53846
16.6686,54025
16.676,53475
16.6834,54486
16.6907,53801
16.6981,53831
16.7055,53572
16.7129,53804
16.7203,57709
16.7276,56614
16.735,60046
16.7424,61851
16.7497,65612
16.7571,68422
16.7645,66935
16.7719,64480
16.7793,59515
16.7866,58446
16.794,57481
16.8014,56969
16.8088,56547
16.8161,56402
16.8235,56866
16.8309,56083
16.8383,55720
16.8456,56469
16.853,56161
16.8604,56015
16.8678,56264
16.8752,57661
16.8825,55982
16.8899,55976
16.8973,55881
16.9047,56484
16.912,56336
16.9194,56360
16.9268,56514
16.9342,56236
16.9415,56642
16.9489,56169
16.9563,56357
16.9637,56472
16.971,55889
16.9784,56463
16.9858,56382
16.9932,54834
17.0006,55142
17.0079,57385
17.0153,57530
17.0227,56487
17.03,58790
17.0374,58592
17.0448,57365
17.0522,59408
17.0596,58755
17.0669,58831
17.0743,56566
17.0817,57032
17.0891,58490
17.0964,61324
17.1038,63405
17.1112,62699
17.1186,60435
17.126,59667
17.1333,59987
17.1407,60381
17.1481,61560
17.1554,60137
17.1628,59098
17.1702,59024
17.1776,62557
17.185,59824
17.1923,62042
17.1997,62912
17.2071,63313
17.2145,64120
17.2218,61620
17.2292,61401
17.2366,61718
17.244,61835
17.2513,64277
17.2587,64159
17.2661,63894
17.2735,62833
17.2809,63082
17.2882,62614
17.2956,64587
17.303,61920
17.3104,62161
17.3177,62356
17.3251,64238
17.3325,64295
17.3399,63405
17.3472,64446
17.3546,66282
17.362,64199
17.3694,63282
17.3767,63520
17.3841,63357
17.3915,63953
17.3989,62266
17.4063,62476
17.4136,63890
17.421,63400
17.4284,61245
17.4357,60714
17.4431,60019
17.4505,61638
17.4579,61614
17.4653,64304
17.4726,60983
17.48,62467
17.4874,65810
