D:\Data GC-MS-77B\2017\OCTOBER\16-10-17\54412-17 3 GSYA.D 16 Oct 17  09:58 am
Start of data points
1.29393,6572
1.30068,6667
1.30742,6509
1.31417,6530
1.3209,22952
1.32765,805336
1.3344,4518375
1.34113,4673108
1.34788,4505282
1.35462,4581686
1.36137,4691344
1.3681,4781215
1.37485,4844495
1.3816,4900643
1.38833,4912541
1.39508,4946139
1.40182,4998269
1.40857,5018829
1.4153,5041967
1.42205,5075873
1.4288,5102964
1.43553,5117621
1.44228,5145910
1.44902,5153961
1.45577,5163177
1.4625,5161106
1.46925,5139822
1.47598,5107109
1.48273,5081464
1.48948,5025805
1.51033,14296090
1.51772,13597610
1.52508,12875848
1.53247,11976118
1.53985,10929451
1.54722,9926759
1.5546,8881781
1.56197,7860807
1.56935,6967997
1.57673,6288330
1.5841,5681386
1.59148,5190623
1.59885,4805866
1.60623,4539907
1.6136,4263692
1.62098,4087469
1.62837,3927457
1.63573,3806737
1.64312,3667651
1.65048,3536905
1.65787,3402863
1.66525,3268895
1.67262,3137032
1.68,3013614
1.68737,2887118
1.69475,2743944
1.70212,2607182
1.7095,2469733
1.71688,2345303
1.72425,2198975
1.73163,2078939
1.739,1958101
1.74638,1822577
1.75377,1700000
1.76113,1588593
1.76852,1478114
1.77588,1367235
1.78327,1268101
1.79063,1179860
1.79802,1082526
1.8054,997627
1.81277,922359
1.82015,850708
1.82752,781309
1.8349,718783
1.84228,657209
1.84965,606672
1.85703,549466
1.8644,511859
1.87178,473801
1.87915,433827
1.88653,399700
1.89392,370516
1.90128,337058
1.90867,310803
1.91603,291416
1.92342,265508
1.9308,241911
1.93817,224088
1.94555,207947
1.95292,190192
1.9603,174167
1.96767,164003
1.97505,149829
1.98243,138035
1.9898,128140
1.99718,121575
2.00455,111004
2.01193,104461
2.01932,99472
2.02668,89737
2.03407,86038
2.04143,79122
2.04882,74860
2.05618,71464
2.06357,67512
2.07095,63165
2.07832,60361
2.0857,56204
2.09307,53644
2.10045,52158
2.10782,50005
2.1152,47185
2.12258,44985
2.12995,42795
2.13733,40930
2.1447,40376
2.15208,46345
2.15947,64569
2.16683,67780
2.17422,64499
2.18158,61190
2.18897,58688
2.19633,54842
2.20372,53438
2.2111,50652
2.21847,49153
2.22585,45744
2.23322,43494
2.2406,41314
2.24798,40425
2.25535,38245
2.26273,37043
2.2701,35884
2.27748,35173
2.28485,33433
2.29223,32756
2.29962,30696
2.30698,29850
2.31437,29202
2.32173,29011
2.32912,27297
2.3365,27148
2.34387,26353
2.35125,26063
2.35862,25758
2.366,25261
2.37337,26017
2.38075,24919
2.38813,24930
2.3955,24451
2.40288,24991
2.41025,24980
2.41763,25613
2.42502,27008
2.43238,27493
2.43977,27576
2.44713,26419
2.45452,26413
2.46188,27766
2.46927,26671
2.47665,26221
2.48402,25533
2.4914,25631
2.49877,25296
2.50615,24794
2.51353,25403
2.5209,26229
2.52828,28355
2.53565,29480
2.54303,29860
2.5504,29440
2.55778,29676
2.56517,28251
2.57253,27884
2.57992,27677
2.58728,27036
2.59467,27619
2.60205,26902
2.60942,27546
2.6168,26311
2.62417,27471
2.63155,26615
2.63892,26064
2.6463,25634
2.65368,25481
2.66105,25622
2.66843,25141
2.6758,24725
2.68318,24771
2.69055,25594
2.69793,24869
2.70532,24804
2.71268,25512
2.72007,25088
2.72743,24749
2.73482,24890
2.7422,25747
2.74957,26523
2.75695,27217
2.76432,27330
2.7717,27772
2.77907,27208
2.78645,27025
2.79383,27222
2.8012,27579
2.80858,27240
2.81595,27542
2.82333,30400
2.83072,34178
2.83808,34465
2.84547,34053
2.85283,32427
2.86022,32202
2.86758,31316
2.87497,30404
2.88235,29579
2.88972,28886
2.8971,28036
2.90447,27080
2.91185,26929
2.91923,26547
2.9266,26611
2.93398,25634
2.94135,24965
2.94873,24988
2.9561,25486
2.96348,24374
2.97087,23581
2.97823,24071
2.98562,23975
2.99298,23460
3.00037,24395
3.00775,23571
3.01512,23741
3.0225,24039
3.02987,23924
3.03725,23896
3.04462,23654
3.052,24144
3.05938,23852
3.06675,24501
3.07413,27385
3.0815,34496
3.08888,40494
3.09627,39776
3.10363,38388
3.11102,37158
3.11838,35332
3.12577,33429
3.13313,32434
3.14052,32547
3.1479,32089
3.15527,32498
3.16265,31237
3.17002,32531
3.1774,31759
3.18478,30943
3.19215,30287
3.19953,30733
3.2069,30621
3.21428,29076
3.22165,27728
3.22903,27221
3.23642,27072
3.24378,26323
3.25117,28988
3.25853,30931
3.26592,30624
3.27328,29749
3.28067,29313
3.28805,28531
3.29542,27994
3.3028,26607
3.31017,26569
3.31755,25988
3.32493,25480
3.3323,26878
3.33968,29165
3.34705,31630
3.35443,30864
3.3618,30580
3.36918,29387
3.37657,28880
3.38393,27592
3.39132,27185
3.39868,27176
3.40607,26435
3.41345,25719
3.42082,25938
3.4282,25400
3.43557,24769
3.44295,24761
3.45032,24492
3.4577,25662
3.46508,28302
3.47245,31153
3.47983,32517
3.4872,32649
3.49458,33229
3.50197,31248
3.50933,33603
3.51672,49338
3.52408,80248
3.53147,96661
3.53883,99695
3.54622,99600
3.5536,93853
3.56097,89197
3.56835,95068
3.57572,89319
3.5831,81902
3.59048,70960
3.59785,62855
3.60523,65383
3.6126,86890
3.61998,100090
3.62735,96542
3.63473,93223
3.64212,86654
3.64948,75075
3.65687,65056
3.66423,55940
3.67162,50824
3.679,55357
3.68637,81665
3.69375,101346
3.70112,103515
3.7085,104431
3.71587,97697
3.72325,86303
3.73063,75634
3.738,65337
3.74538,56519
3.75275,48744
3.76013,42064
3.76752,37355
3.77488,34307
3.78227,37056
3.78963,40840
3.79702,47987
3.80438,52466
3.81177,53364
3.81915,53094
3.82652,56009
3.8339,61419
3.84127,69873
3.84865,73821
3.85603,68416
3.8634,60241
3.87078,53742
3.87815,47196
3.88553,44225
3.8929,40919
3.90028,38719
3.90767,65496
3.91503,211898
3.92242,416268
3.92978,467005
3.93717,415118
3.94453,350544
3.95192,281357
3.9593,223956
3.96667,178148
3.97405,131193
3.98142,93114
3.9888,67391
3.99618,58804
4.00355,71208
4.01093,85834
4.0183,81823
4.02568,72303
4.03305,63344
4.04043,56009
4.04782,54404
4.05518,52009
4.06257,47043
4.06993,43934
4.07732,44448
4.0847,43536
4.09207,41459
4.09945,42867
4.10682,45104
4.1142,43110
4.12157,43466
4.12895,45579
4.13633,50020
4.1437,49216
4.15108,45582
4.15845,42417
4.16583,36528
4.17322,37082
4.18058,55315
4.18797,79533
4.19533,86997
4.20272,85593
4.21008,81430
4.21747,75211
4.22485,65236
4.23222,54603
4.2396,52322
4.24697,62309
4.25435,114976
4.26173,219343
4.2691,256028
4.27648,219962
4.28385,180991
4.29123,157128
4.2986,137487
4.30598,121170
4.31337,125051
4.32073,143832
4.32812,155319
4.33548,199898
4.34287,352561
4.35025,479380
4.35762,464512
4.365,381425
4.37237,317542
4.37975,334780
4.38712,427214
4.3945,426749
4.40188,360801
4.40925,313209
4.41663,275873
4.424,244534
4.43138,203060
4.43877,175761
4.44613,166658
4.45352,166197
4.46088,147186
4.46827,116686
4.47563,91143
4.48302,78200
4.4904,78379
4.49777,79209
4.50515,85011
4.51252,102810
4.5199,135789
4.52727,148263
4.53465,129856
4.54203,105544
4.5494,97220
4.55678,146907
4.56415,246256
4.57153,279497
4.57892,247418
4.58628,216102
4.59367,276340
4.60103,355866
4.60842,358088
4.61578,319310
4.62317,258102
4.63055,214573
4.63792,182511
4.6453,167960
4.65267,158358
4.66005,138677
4.66743,113101
4.6748,168149
4.68218,447385
4.68955,889712
4.69693,1129417
4.7043,1059275
4.71168,802023
4.71907,543179
4.72643,345330
4.73382,202542
4.74118,114308
4.74857,81793
4.75595,90656
4.76332,181094
4.7707,528890
4.77807,1257691
4.78545,1678674
4.79282,1495889
4.8002,1123562
4.80758,751473
4.81495,474251
4.82233,286486
4.8297,192420
4.83708,155156
4.84447,165137
4.85183,200987
4.85922,233473
4.86658,258963
4.87397,234764
4.88133,184919
4.88872,147830
4.8961,146963
4.90347,167171
4.91085,166513
4.91822,133115
4.9256,113780
4.93298,154894
4.94035,236189
4.94773,282005
4.9551,371829
4.96248,537326
4.96985,583646
4.97723,526346
4.98462,488688
4.99198,569995
4.99937,727348
5.00673,685227
5.01412,576320
5.0215,556247
5.02887,508145
5.03625,389194
5.04362,315081
5.051,282162
5.05837,309241
5.06575,489449
5.07313,706772
5.0805,680195
5.08788,498436
5.09525,381005
5.10263,915243
5.11,2754249
5.11738,4277601
5.12477,3704566
5.13213,2414748
5.13952,1284415
5.14688,592946
5.15427,290408
5.16165,165638
5.16902,97661
5.1764,63875
5.18377,58281
5.19115,93729
5.19852,168975
5.2059,251139
5.21328,297493
5.22065,322643
5.22803,500896
5.2354,696244
5.24278,637506
5.25017,476614
5.25753,365980
5.26492,335075
5.27228,353961
5.27967,333551
5.28703,254957
5.29442,182660
5.3018,176573
5.30917,234849
5.31655,311261
5.32392,436595
5.3313,503534
5.33868,456173
5.34605,346449
5.35343,232740
5.3608,190709
5.36818,190202
5.37555,191292
5.38293,294744
5.39032,594452
5.39768,874361
5.40507,991131
5.41243,988134
5.41982,812265
5.4272,544896
5.43457,307032
5.44195,212685
5.44932,283397
5.4567,450330
5.46407,566409
5.47145,578633
5.47883,585823
5.4862,535748
5.49358,518928
5.50095,866315
5.50833,1693615
5.51572,2680613
5.52308,2837635
5.53047,1953823
5.53783,1275428
5.54522,1094212
5.55258,891767
5.55997,614621
5.56735,423705
5.57472,322896
5.5821,359038
5.58947,491455
5.59685,595458
5.60423,766324
5.6116,1227203
5.61898,1388792
5.62635,1041673
5.63373,720114
5.6411,635133
5.64848,624796
5.65587,512656
5.66323,428223
5.67062,429816
5.67798,463112
5.68537,461631
5.69275,356821
5.70012,251918
5.7075,248322
5.71487,329793
5.72225,406292
5.72962,415419
5.737,344606
5.74438,244966
5.75175,281945
5.75913,628585
5.7665,1087534
5.77388,1202260
5.78125,902445
5.78863,664347
5.79602,578405
5.80338,421989
5.81077,348167
5.81813,682053
5.82552,1355545
5.8329,1980279
5.84027,2598099
5.84765,2646659
5.85502,1760107
5.8624,1426286
5.86977,2470551
5.87715,3385354
5.88453,2983665
5.8919,2092371
5.89928,1500781
5.90665,1243882
5.91403,978544
5.92142,684020
5.92878,430732
5.93617,404068
5.94353,1069474
5.95092,2398661
5.95828,3032460
5.96567,2393025
5.97305,1305981
5.98042,545166
5.9878,286609
5.99517,378481
6.00255,603044
6.00993,916251
6.0173,1095419
6.02468,962783
6.03205,780075
6.03943,772868
6.0468,839860
6.05418,721358
6.06157,523321
6.06893,403344
6.07632,346119
6.08368,348229
6.09107,456209
6.09845,794082
6.10582,1042606
6.1132,896836
6.12057,1076510
6.12795,1556598
6.13532,1759951
6.1427,1412804
6.15008,1141088
6.15745,1200858
6.16483,1283035
6.1722,1123348
6.17958,864326
6.18697,650423
6.19433,627289
6.20172,754803
6.20908,751251
6.21647,612385
6.22383,629616
6.23122,591215
6.2386,446880
6.24597,793553
6.25335,2493591
6.26072,4343578
6.2681,5133858
6.27548,7387012
6.28285,10100750
6.29023,7450149
6.2976,2106315
6.30498,701400
6.31235,485838
6.31973,439741
6.32712,616500
6.33448,778973
6.34187,593317
6.34923,353394
6.35662,249481
6.36398,199038
6.37137,211562
6.37875,408095
6.38612,632211
6.3935,577102
6.40087,393194
6.40825,403753
6.41563,647802
6.423,809015
6.43038,935775
6.43775,1176842
6.44513,1225120
6.4525,949612
6.45988,767073
6.46727,736713
6.47463,741381
6.48202,786918
6.48938,802763
6.49677,903080
6.50415,1093188
6.51152,1017161
6.5189,818742
6.52627,1242594
6.53365,2877467
6.54102,3480325
6.5484,1914648
6.55578,689982
6.56315,474781
6.57053,681557
6.5779,805175
6.58528,1017914
6.59267,2003670
6.60003,2906567
6.60742,2593520
6.61478,1659515
6.62217,1032868
6.62953,741866
6.63692,533037
6.6443,670663
6.65167,1423297
6.65905,2087214
6.66642,1979883
6.6738,1759021
6.68118,1878066
6.68855,1925771
6.69593,1411899
6.7033,1056689
6.71068,1492595
6.71805,2177716
6.72543,1930608
6.73282,1075332
6.74018,795386
6.74757,735735
6.75493,848537
6.76232,1025627
6.7697,887473
6.77707,626619
6.78445,511791
6.79182,519535
6.7992,613524
6.80657,646905
6.81395,584950
6.82133,604036
6.8287,831983
6.83608,1000245
6.84345,1168505
6.85083,1214789
6.85822,1161245
6.86558,1008771
6.87297,1088857
6.88033,1449690
6.88772,1484580
6.89508,1405300
6.90247,1797067
6.90985,2138007
6.91722,2492607
6.9246,1860881
6.93197,797344
6.93935,794005
6.94673,1836860
6.9541,2933157
6.96148,2396376
6.96885,1568348
6.97623,1989162
6.9836,3517335
6.99098,4707494
6.99837,3262888
7.00573,1236137
7.01312,870622
7.02048,1020568
7.02787,1011504
7.03523,810512
7.04262,733151
7.05,816381
7.05737,1840852
7.06475,3359995
7.07212,2695093
7.0795,1585377
7.08688,1411930
7.09425,1007887
7.10163,723035
7.109,649184
7.11638,609075
7.12375,531328
7.13113,469854
7.13852,540172
7.14588,651160
7.15327,592848
7.16063,524601
7.16802,616064
7.1754,783677
7.18277,1114020
7.19015,1667136
7.19752,1703410
7.2049,1670417
7.21227,1977113
7.21965,1653987
7.22703,1139041
7.2344,874236
7.24178,948933
7.24915,1686535
7.25653,2097902
7.26392,1370687
7.27128,1093619
7.27867,1893712
7.28603,2341415
7.29342,1868929
7.30078,1405127
7.30817,1105593
7.31555,1444923
7.32292,1763334
7.3303,1408274
7.33767,866391
7.34505,599881
7.35243,658527
7.3598,1465808
7.36718,4598297
7.37455,9961535
7.38193,13371039
7.3893,8070543
7.39668,1795634
7.40407,1128815
7.41143,1110010
7.41882,1177583
7.42618,1303671
7.43357,1236421
7.44095,1140615
7.44832,1170071
7.4557,1023526
7.46307,919113
7.47045,1104452
7.47782,1333343
7.4852,1392688
7.49258,1255154
7.49995,1169582
7.50733,1288290
7.5147,1458275
7.52208,1495218
7.52947,1289003
7.53683,1282874
7.54422,1723299
7.55158,1995530
7.55897,2100548
7.56633,1880897
7.57372,1036830
7.5811,836104
7.58847,1561221
7.59585,2332279
7.60322,2079476
7.6106,1862210
7.61797,2327743
7.62535,2179456
7.63273,1180314
7.6401,571691
7.64748,624730
7.65485,1254774
7.66223,3093520
7.66962,3990760
7.67698,2277604
7.68437,981862
7.69173,699355
7.69912,575707
7.70648,496439
7.71387,623945
7.72125,1033281
7.72862,1257432
7.736,1366063
7.74337,1282586
7.75075,1238565
7.75813,1095564
7.7655,1318224
7.77288,2054690
7.78025,2056904
7.78763,1780790
7.795,2247064
7.80238,2058923
7.80977,1389112
7.81713,1641517
7.82452,2291746
7.83188,1915512
7.83927,1263335
7.84665,1061497
7.85402,1072748
7.8614,1051346
7.86877,1009826
7.87615,1384362
7.88352,1866898
7.8909,1919886
7.89828,1982594
7.90565,1534538
7.91303,1255958
7.9204,1401436
7.92778,1595677
7.93517,2086447
7.94253,2688826
7.94992,2686204
7.95728,2683531
7.96467,1747830
7.97203,1320742
7.97942,1724755
7.9868,2437010
7.99417,3650179
8.00155,3781616
8.00892,2952469
8.0163,2447223
8.02368,2209610
8.03105,3634878
8.03843,5266595
8.0458,3772255
8.05318,1480127
8.06055,1530628
8.06793,1951710
8.07532,1588439
8.08268,983338
8.09007,936380
8.09743,1515684
8.10482,2931649
8.1122,3932047
8.11957,2861196
8.12695,2272225
8.13432,2017199
8.1417,1914495
8.14907,1622608
8.15645,1589354
8.16383,1651520
8.1712,1529600
8.17858,1341708
8.18595,1183412
8.19333,1037135
8.2007,923517
8.20808,1072666
8.21547,1418366
8.22283,1496157
8.23022,1110679
8.23758,818011
8.24497,652342
8.25235,701859
8.25972,900992
8.2671,1238080
8.27447,1587610
8.28185,1515717
8.28922,1171032
8.2966,1412233
8.30398,2350122
8.31135,3166850
8.31873,2826080
8.3261,2052897
8.33348,1665103
8.34087,1597652
8.34823,1607763
8.35562,1815844
8.36298,2437951
8.37037,3057097
8.37773,3210103
8.38512,3061417
8.3925,5230793
8.39987,10399546
8.40725,14966870
8.41462,13161349
8.422,3703357
8.42938,1875800
8.43675,1822295
8.44413,1817718
8.4515,2018276
8.45888,2099508
8.46625,1917973
8.47363,1831678
8.48102,2083174
8.48838,2273384
8.49577,1805770
8.50313,1478545
8.51052,1539172
8.5179,1666159
8.52527,2131831
8.53265,3871364
8.54002,6039563
8.5474,5083366
8.55477,2537394
8.56215,1560248
8.56953,1463067
8.5769,1750741
8.58428,1695952
8.59165,1553378
8.59903,1644303
8.60642,1572678
8.61378,1607368
8.62117,2134364
8.62853,2099818
8.63592,1738701
8.64328,1320235
8.65067,1039213
8.65805,892605
8.66542,1133959
8.6728,1708498
8.68017,2209344
8.68755,2187030
8.69493,1694254
8.7023,1336249
8.70968,1517185
8.71705,2211182
8.72443,2652583
8.7318,2140171
8.73918,1812407
8.74657,1607892
8.75393,1549426
8.76132,1538288
8.76868,1590420
8.77607,1806284
8.78343,1818258
8.79082,1401213
8.7982,1251781
8.80557,1481304
8.81295,1326049
8.82032,1243029
8.8277,1787944
8.83508,2723364
8.84245,3576674
8.84983,3292750
8.8572,2986643
8.86458,2593742
8.87195,2099752
8.87933,1584203
8.88672,1345188
8.89408,1518230
8.90147,1894285
8.90883,2774180
8.91622,2735185
8.9236,2486660
8.93097,3414532
8.93835,3446388
8.94572,2476503
8.9531,2114912
8.96047,2385686
8.96785,2918490
8.97523,3554457
8.9826,3078170
8.98998,2249944
8.99735,2532512
9.00473,2689264
9.01212,3041566
9.01948,4592294
9.02687,4059290
9.03423,2313434
9.04162,2214431
9.04898,2245035
9.05637,1703490
9.06375,1156541
9.07112,1292311
9.0785,2406853
9.08587,4106853
9.09325,4291272
9.10063,3968550
9.108,6348211
9.11538,6096946
9.12275,3152393
9.13013,2280319
9.1375,2195477
9.14488,1828779
9.15227,1575691
9.15963,2175683
9.16702,2685889
9.17438,2387757
9.18177,1738010
9.18915,1414271
9.19652,1559556
9.2039,1535903
9.21127,1501555
9.21865,1714098
9.22602,1663772
9.2334,1346705
9.24078,1101491
9.24815,1297256
9.25553,1999390
9.2629,2380604
9.27028,1956837
9.27767,1716204
9.28503,1803598
9.29242,2017179
9.29978,2281013
9.30717,2384278
9.31453,2377771
9.32192,2312561
9.3293,2039112
9.33667,1852963
9.34405,2336584
9.35142,4426673
9.3588,9019330
9.36617,14085627
9.37355,16668487
9.38093,8136224
9.3883,2329306
9.39568,1992254
9.40305,1905434
9.41043,1950536
9.41782,2412386
9.42518,2646771
9.43257,2525032
9.43993,2675861
9.44732,2571457
9.45468,3248845
9.46207,4475885
9.46945,4145836
9.47682,2718255
9.4842,1793631
9.49157,1749031
9.49895,1819123
9.50633,1923102
9.5137,2519386
9.52108,2780343
9.52845,3062890
9.53583,3330000
9.5432,2226288
9.55058,1463516
9.55797,1318228
9.56533,1499255
9.57272,1539782
9.58008,1378867
9.58747,1259685
9.59485,1193220
9.60222,1119019
9.6096,1321243
9.61697,1850733
9.62435,2793401
9.63172,3305525
9.6391,2578629
9.64648,2010704
9.65385,1946464
9.66123,2279169
9.6686,2533147
9.67598,2406422
9.68337,2184118
9.69073,2209723
9.69812,2060330
9.70548,1648979
9.71287,1413308
9.72023,1634285
9.72762,1865615
9.735,1746660
9.74237,1892573
9.74975,1883146
9.75712,1542094
9.7645,1357668
9.77188,1365944
9.77925,1331869
9.78663,1383771
9.794,1621942
9.80138,1833709
9.80875,2241056
9.81613,3900671
9.82352,5251462
9.83088,4022445
9.83827,2113996
9.84563,2183394
9.85302,2730553
9.8604,2288958
9.86777,1647408
9.87515,1452932
9.88252,1742107
9.8899,2693473
9.89727,3692353
9.90465,3028939
9.91203,2245379
9.9194,1917935
9.92678,1838099
9.93415,2649850
9.94153,4025816
9.9489,3393499
9.95628,2042671
9.96367,1875370
9.97103,1609703
9.97842,1447016
9.98578,1432616
9.99317,1544292
10.0006,2567149
10.0079,3984373
10.0153,3408894
10.0227,2461979
10.0301,2136339
10.0374,1707093
10.0448,1587321
10.0522,2422758
10.0596,5124941
10.0669,6146576
10.0743,3417441
10.0817,1482302
10.0891,1180256
10.0964,1234023
10.1038,1299055
10.1112,1253612
10.1186,1344028
10.1259,1462946
10.1333,1256538
10.1407,1008530
10.1481,1025751
10.1555,1147195
10.1628,1271437
10.1702,1448957
10.1776,1588544
10.185,1606116
10.1923,1440226
10.1997,1365927
10.2071,1328879
10.2145,1231379
10.2218,1517982
10.2292,1899429
10.2366,1854987
10.244,1878962
10.2513,3087731
10.2587,6546960
10.2661,11718004
10.2735,13934592
10.2809,6346051
10.2882,2130095
10.2956,2104495
10.303,2467608
10.3104,2001966
10.3177,1506941
10.3251,1430001
10.3325,1526122
10.3399,2024863
10.3472,2479099
10.3546,2339516
10.362,2489476
10.3694,2259495
10.3767,1650834
10.3841,1424479
10.3915,1590460
10.3989,1977555
10.4063,2152509
10.4136,1615042
10.421,1162112
10.4284,1187577
10.4358,1215081
10.4431,1171108
10.4505,1457877
10.4579,1885239
10.4653,1998501
10.4726,1698962
10.48,1333640
10.4874,1250700
10.4948,1318878
10.5021,1297510
10.5095,1307776
10.5169,1304267
10.5243,1128715
10.5316,1129985
10.539,1246338
10.5464,1290571
10.5538,1342676
10.5612,1381785
10.5685,1343387
10.5759,1326163
10.5833,1468410
10.5907,1931562
10.598,2319904
10.6054,2050468
10.6128,1547709
10.6202,1515576
10.6275,1893093
10.6349,2044073
10.6423,1582091
10.6497,1302616
10.657,1509476
10.6644,1763842
10.6718,1929977
10.6792,2090036
10.6866,2054544
10.6939,2143082
10.7013,1838094
10.7087,1660046
10.7161,1894141
10.7234,2049760
10.7308,2200369
10.7382,2282628
10.7456,1771699
10.7529,1520413
10.7603,1833157
10.7677,2155210
10.7751,1781223
10.7824,1478131
10.7898,2001961
10.7972,3612929
10.8046,4867107
10.812,3989535
10.8193,2211749
10.8267,1454801
10.8341,1352851
10.8415,1223756
10.8488,1158788
10.8562,1143337
10.8636,1409905
10.871,2256021
10.8783,2291369
10.8857,1431088
10.8931,1082004
10.9005,1190324
10.9078,1348000
10.9152,1379004
10.9226,1328286
10.93,1170383
10.9374,1046559
10.9447,992342
10.9521,1099819
10.9595,1370805
10.9669,1424414
10.9742,1247233
10.9816,1148322
10.989,977114
10.9964,943495
11.0037,1176442
11.0111,1280253
11.0185,1119042
11.0259,1000411
11.0332,960891
11.0406,972209
11.048,1010404
11.0554,1134710
11.0627,1290933
11.0701,1328770
11.0775,1205335
11.0849,1104342
11.0923,1099684
11.0996,1622707
11.107,4224187
11.1144,8215673
11.1218,8448651
11.1291,3653380
11.1365,1670626
11.1439,1323130
11.1513,1141338
11.1586,1182733
11.166,1230145
11.1734,1292353
11.1808,1571989
11.1881,1788412
11.1955,1617022
11.2029,1262188
11.2103,1102494
11.2177,1141557
11.225,1328124
11.2324,1424524
11.2398,1454879
11.2472,1379123
11.2545,1163950
11.2619,950632
11.2693,946643
11.2767,978254
11.284,1025981
11.2914,1044168
11.2988,1065567
11.3062,1154695
11.3135,1143786
11.3209,1022717
11.3283,987639
11.3357,1013985
11.3431,1020447
11.3504,1152122
11.3578,1172600
11.3652,1029814
11.3726,926929
11.3799,866157
11.3873,880060
11.3947,1018563
11.4021,1081452
11.4094,1046344
11.4168,983588
11.4242,827147
11.4316,718309
11.4389,772622
11.4463,869561
11.4537,911408
11.4611,968889
11.4684,948640
11.4758,969249
11.4832,1281603
11.4906,1808943
11.498,1885739
11.5053,1618699
11.5127,1565273
11.5201,1231822
11.5275,1143322
11.5348,1569105
11.5422,1855506
11.5496,1536319
11.557,1309355
11.5643,1279211
11.5717,1147545
11.5791,1296599
11.5865,1892199
11.5938,1893052
11.6012,1442819
11.6086,1036435
11.616,1007333
11.6234,1521343
11.6307,1967111
11.6381,1674759
11.6455,1393897
11.6529,1533008
11.6602,1442910
11.6676,1162961
11.675,1147352
11.6824,1378036
11.6897,1877204
11.6971,1763788
11.7045,1126386
11.7119,858339
11.7192,886396
11.7266,948203
11.734,1009336
11.7414,1054330
11.7488,987298
11.7561,908631
11.7635,896283
11.7709,840722
11.7783,866015
11.7856,909974
11.793,905619
11.8004,939306
11.8078,1008528
11.8151,1016124
11.8225,968626
11.8299,926950
11.8373,933439
11.8446,981905
11.852,1066314
11.8594,1090583
11.8668,1078344
11.8741,1003433
11.8815,903402
11.8889,904926
11.8963,919796
11.9037,1270653
11.911,3195929
11.9184,6515294
11.9258,6658661
11.9332,2676985
11.9405,1284701
11.9479,1077497
11.9553,1081777
11.9627,1192694
11.97,1377527
11.9774,1490091
11.9848,1415752
11.9922,1356862
11.9995,1306019
12.0069,1254642
12.0143,1249007
12.0217,1232855
12.0291,1166835
12.0364,1204382
12.0438,1149912
12.0512,964509
12.0586,901443
12.0659,996917
12.0733,1048024
12.0807,1024996
12.0881,1090101
12.0954,1188486
12.1028,1109542
12.1102,973842
12.1176,1053963
12.1249,1102510
12.1323,1015504
12.1397,969559
12.1471,1074220
12.1545,1077295
12.1618,962193
12.1692,919421
12.1766,929337
12.184,1029659
12.1913,1104188
12.1987,1075405
12.2061,952868
12.2135,880463
12.2208,859355
12.2282,838712
12.2356,875813
12.243,948878
12.2503,1022785
12.2577,1221644
12.2651,1657557
12.2725,1874598
12.2799,1693802
12.2872,1930875
12.2946,2622848
12.302,2850565
12.3094,2187045
12.3167,1761818
12.3241,1612782
12.3315,1266105
12.3389,1073274
12.3462,1064005
12.3536,1156189
12.361,1421828
12.3684,1680384
12.3757,1460070
12.3831,1206385
12.3905,1259056
12.3979,1595669
12.4052,2155090
12.4126,2274410
12.42,1638628
12.4274,1217584
12.4348,1126749
12.4421,1116133
12.4495,1243817
12.4569,1390975
12.4643,1787826
12.4716,1997660
12.479,1431862
12.4864,1023789
12.4938,1030757
12.5011,1096559
12.5085,1081697
12.5159,1068369
12.5233,1059260
12.5306,1111935
12.538,1078655
12.5454,1017581
12.5528,982921
12.5602,1082696
12.5675,1203095
12.5749,1234440
12.5823,1208392
12.5897,1230487
12.597,1308027
12.6044,1287130
12.6118,1317583
12.6192,1284188
12.6265,1168454
12.6339,1084572
12.6413,1093759
12.6487,1129138
12.656,1216585
12.6634,1456469
12.6708,2323267
12.6782,4979390
12.6856,8007490
12.6929,5875567
12.7003,2040018
12.7077,1222435
12.7151,1519312
12.7224,2793110
12.7298,4510821
12.7372,4184690
12.7446,2648007
12.7519,1863481
12.7593,1781148
12.7667,1690004
12.7741,1637994
12.7814,1635599
12.7888,1676129
12.7962,1542659
12.8036,1368304
12.8109,1269173
12.8183,1240554
12.8257,1256698
12.8331,1248516
12.8405,1271456
12.8478,1334601
12.8552,1436179
12.8626,1482964
12.87,1422589
12.8773,1327075
12.8847,1301917
12.8921,1310804
12.8995,1350364
12.9068,1313845
12.9142,1222545
12.9216,1187718
12.929,1223554
12.9363,1386529
12.9437,1565086
12.9511,1467716
12.9585,1269103
12.9659,1195519
12.9732,1195733
12.9806,1181187
12.988,1259738
12.9954,1707129
13.0027,2308603
13.0101,2476810
13.0175,2384623
13.0249,2101187
13.0322,1957831
13.0396,1612304
13.047,1384517
13.0544,1628955
13.0617,2005485
13.0691,2096912
13.0765,1868746
13.0839,1546260
13.0913,1336683
13.0986,1589196
13.106,2176314
13.1134,2128994
13.1208,1596164
13.1281,1419565
13.1355,1613810
13.1429,2220812
13.1503,2538448
13.1576,2131532
13.165,1737753
13.1724,1559864
13.1798,1593296
13.1871,1725651
13.1945,1738462
13.2019,2119383
13.2093,2422208
13.2166,1916675
13.224,1505689
13.2314,1384362
13.2388,1394981
13.2462,1453692
13.2535,1473415
13.2609,1437426
13.2683,1450459
13.2757,1490871
13.283,1595356
13.2904,1653115
13.2978,1595641
13.3052,1451721
13.3125,1365561
13.3199,1426685
13.3273,1562735
13.3347,1572259
13.342,1518184
13.3494,1498869
13.3568,1488510
13.3642,1504851
13.3716,1599285
13.3789,1613022
13.3863,1581787
13.3937,1885856
13.4011,3770249
13.4084,7301987
13.4158,7235376
13.4232,3218733
13.4306,1617778
13.4379,1596798
13.4453,1795950
13.4527,1714850
13.4601,1720080
13.4674,2197845
13.4748,3128975
13.4822,4387294
13.4896,4358383
13.497,2815111
13.5043,2094808
13.5117,1808447
13.5191,1571901
13.5265,1501496
13.5338,1542595
13.5412,1512749
13.5486,1460055
13.556,1559674
13.5633,1532648
13.5707,1502435
13.5781,1533552
13.5855,1420692
13.5928,1384105
13.6002,1450582
13.6076,1513145
13.615,1550077
13.6223,1504520
13.6297,1401588
13.6371,1332697
13.6445,1397762
13.6519,1585295
13.6592,1705108
13.6666,1613163
13.674,1471441
13.6814,1390559
13.6887,1441604
13.6961,1762457
13.7035,2157691
13.7109,2075779
13.7182,1936551
13.7256,1846770
13.733,1933763
13.7404,1851792
13.7477,1560757
13.7551,1432540
13.7625,1655775
13.7699,1748480
13.7773,1548862
13.7846,1435039
13.792,1445298
13.7994,1481747
13.8068,1704206
13.8141,1911399
13.8215,1712861
13.8289,1527835
13.8363,1566376
13.8436,1806460
13.851,1986122
13.8584,1601110
13.8658,1439763
13.8731,1481538
13.8805,1603654
13.8879,1550542
13.8953,1405487
13.9027,1708295
13.91,2183282
13.9174,2100547
13.9248,1647006
13.9322,1361321
13.9395,1358864
13.9469,1318902
13.9543,1323383
13.9617,1374816
13.969,1451086
13.9764,1466622
13.9838,1496972
13.9912,1448701
13.9985,1418559
14.0059,1406607
14.0133,1406676
14.0207,1376209
14.0281,1318731
14.0354,1376068
14.0428,1554782
14.0502,1817207
14.0576,1932781
14.0649,1768005
14.0723,1459140
14.0797,1445037
14.0871,2275559
14.0944,4727042
14.1018,6143687
14.1092,3387853
14.1166,1623865
14.1239,1435612
14.1313,1412383
14.1387,1318918
14.1461,1329338
14.1534,1435884
14.1608,1485354
14.1682,1555075
14.1756,1602489
14.183,1521615
14.1903,1504599
14.1977,1513483
14.2051,1524832
14.2125,1504005
14.2198,1369995
14.2272,1290898
14.2346,1324362
14.242,1358237
14.2493,1297923
14.2567,1242085
14.2641,1194954
14.2715,1264353
14.2788,1311390
14.2862,1236639
14.2936,1186712
14.301,1138613
14.3084,1157234
14.3157,1289891
14.3231,1331769
14.3305,1263020
14.3379,1196536
14.3452,1293553
14.3526,1518610
14.36,1720874
14.3674,1651018
14.3747,1556046
14.3821,1507018
14.3895,1466922
14.3969,1527770
14.4042,1352614
14.4116,1253224
14.419,1319922
14.4264,1434973
14.4338,1316229
14.4411,1153902
14.4485,1124941
14.4559,1158938
14.4633,1356812
14.4706,1483988
14.478,1324048
14.4854,1263288
14.4928,1460924
14.5001,1612197
14.5075,1292495
14.5149,1127755
14.5223,1180394
14.5296,1164647
14.537,1120461
14.5444,1303637
14.5518,1699710
14.5591,1546912
14.5665,1258624
14.5739,1168482
14.5813,1292754
14.5887,1396884
14.596,1249732
14.6034,1163949
14.6108,1150483
14.6182,1227963
14.6255,1251740
14.6329,1196109
14.6403,1152796
14.6477,1130482
14.655,1118976
14.6624,1086702
14.6698,1100726
14.6772,1098804
14.6845,1069670
14.6919,1062091
14.6993,1213897
14.7067,1990284
14.7141,3954488
14.7214,4248055
14.7288,2006624
14.7362,1228107
14.7436,1155269
14.7509,1049073
14.7583,1095586
14.7657,1117991
14.7731,1094809
14.7804,1098694
14.7878,1121418
14.7952,1152556
14.8026,1137747
14.8099,1106405
14.8173,1109171
14.8247,1162271
14.8321,1175272
14.8395,1142498
14.8468,1014529
14.8542,954409
14.8616,968484
14.869,939508
14.8763,906867
14.8837,898748
14.8911,908241
14.8985,915411
14.9058,916414
14.9132,926731
14.9206,942082
14.928,1068802
14.9353,1295655
14.9427,1365347
14.9501,1238433
14.9575,1139713
14.9648,1089720
14.9722,1124276
14.9796,1134678
14.987,980376
14.9944,941461
15.0017,1027871
15.0091,1025555
15.0165,937261
15.0239,890088
15.0312,929901
15.0386,1068911
15.046,1064228
15.0534,954488
15.0607,997876
15.0681,1144479
15.0755,1040895
15.0829,898346
15.0902,855244
15.0976,860485
15.105,848091
15.1124,974388
15.1198,1137972
15.1271,1093993
15.1345,1091963
15.1419,1087769
15.1493,1009434
15.1566,916629
15.164,944375
15.1714,1020608
15.1788,941513
15.1861,904884
15.1935,891258
15.2009,873671
15.2083,831927
15.2156,796360
15.223,800641
15.2304,775910
15.2378,774173
15.2452,855160
15.2525,1579045
15.2599,3088890
15.2673,2809899
15.2747,1198322
15.282,853926
15.2894,791917
15.2968,792982
15.3042,797859
15.3115,833372
15.3189,821817
15.3263,774329
15.3337,805457
15.341,844548
15.3484,871493
15.3558,810071
15.3632,772109
15.3705,782957
15.3779,766504
15.3853,748044
15.3927,726306
15.4001,717467
15.4074,687348
15.4148,678113
15.4222,716074
15.4296,767538
15.4369,795599
15.4443,795536
15.4517,862017
15.4591,906716
15.4664,873917
15.4738,886120
15.4812,854396
15.4886,816635
15.4959,804441
15.5033,701556
15.5107,680972
15.5181,743636
15.5255,714187
15.5328,674360
15.5402,668029
15.5476,759801
15.555,785928
15.5623,702239
15.5697,726819
15.5771,811446
15.5845,697670
15.5918,642569
15.5992,664907
15.6066,680639
15.614,735290
15.6213,817253
15.6287,724647
15.6361,631985
15.6435,660124
15.6509,701656
15.6582,688581
15.6656,659042
15.673,644952
15.6804,671566
15.6877,732946
15.6951,667310
15.7025,591537
15.7099,572526
15.7172,573510
15.7246,566511
15.732,594787
15.7394,1016494
15.7467,2101553
15.7541,1821048
15.7615,830112
15.7689,618236
15.7763,584631
15.7836,597943
15.791,611569
15.7984,608430
15.8058,614598
15.8131,601533
15.8205,563527
15.8279,553432
15.8353,593311
15.8426,610224
15.85,564461
15.8574,554464
15.8648,557149
15.8721,529910
15.8795,507344
15.8869,501002
15.8943,496506
15.9016,512753
15.909,584900
15.9164,715028
15.9238,714364
15.9312,637797
15.9385,574062
15.9459,537725
15.9533,570233
15.9607,589173
15.968,512838
15.9754,518630
15.9828,511058
15.9902,476672
15.9975,470355
16.0049,509895
16.0123,532120
16.0197,504581
16.027,557219
16.0344,554849
16.0418,481781
16.0492,459229
16.0566,461738
16.0639,470931
16.0713,518612
16.0787,512433
16.0861,448385
16.0934,420821
16.1008,422529
16.1082,437689
16.1155,454537
16.1229,438533
16.1303,396395
16.1377,384253
16.1451,378531
16.1524,410340
16.1598,424472
16.1672,404548
16.1746,380278
16.182,494037
16.1893,1069611
16.1967,1239457
16.2041,672158
16.2114,421723
16.2188,381515
16.2262,370626
16.2336,387458
16.241,401827
16.2483,389010
16.2557,363794
16.2631,358591
16.2705,359749
16.2778,368124
16.2852,359239
16.2926,351768
16.3,341551
16.3073,335929
16.3147,331785
16.3221,317220
16.3295,301542
16.3368,303579
16.3442,318137
16.3516,355690
16.359,383399
16.3664,362478
16.3737,341794
16.3811,334874
16.3885,329125
16.3958,324365
16.4032,324781
16.4106,296872
16.418,299395
16.4254,309158
16.4327,291055
16.4401,262754
16.4475,261143
16.4549,284873
16.4623,285706
16.4696,282155
16.477,297788
16.4844,290047
16.4918,263141
16.4991,257079
16.5065,252970
16.5139,247709
16.5212,265243
16.5286,277986
16.536,254754
16.5434,238369
16.5508,227973
16.5581,228092
16.5655,222649
16.5729,227009
16.5803,234993
16.5877,234871
16.595,221907
16.6024,208168
16.6098,203623
16.6171,204956
16.6245,212731
16.6319,224886
16.6393,282548
16.6467,492585
16.654,593042
16.6614,369983
16.6688,237074
16.6762,212805
16.6835,203110
16.6909,208851
16.6983,217070
16.7057,205931
16.713,197108
16.7204,187520
16.7278,182624
16.7352,177893
16.7426,178301
16.7499,182321
16.7573,177728
16.7647,177678
16.7721,182888
16.7794,178479
16.7868,167624
16.7942,164582
16.8015,163147
16.8089,167780
16.8163,180430
16.8237,194035
16.8311,185961
16.8384,176475
16.8458,167095
16.8532,162470
16.8606,157260
16.868,157530
16.8753,162478
16.8827,154742
16.8901,150707
16.8974,150190
16.9048,145268
16.9122,138212
16.9196,138637
16.927,143334
16.9343,145277
16.9417,147999
16.9491,144685
16.9565,148543
16.9638,148820
16.9712,143206
16.9786,134304
16.986,132281
16.9934,131604
17.0007,133882
17.0081,136542
17.0155,140978
17.0228,136257
17.0302,129579
17.0376,124614
17.045,123317
17.0524,121157
17.0597,119155
17.0671,120222
17.0745,116995
17.0819,115507
17.0892,120694
17.0966,118048
17.104,115295
17.1114,112285
17.1187,110373
17.1261,109846
17.1335,120178
17.1409,169317
17.1483,227330
17.1556,201443
17.163,141024
17.1704,115757
17.1778,109425
17.1851,106771
17.1925,107307
17.1999,106163
17.2072,101624
17.2146,100888
17.222,99016
17.2294,96644
17.2368,93634
17.2441,93143
17.2515,91772
17.2589,89776
17.2663,90337
17.2737,89888
17.281,90006
17.2884,90185
17.2958,89337
17.3031,87571
17.3105,87385
17.3179,88049
17.3253,89479
17.3327,93572
17.34,91800
17.3474,89033
17.3548,88796
17.3622,86987
17.3695,84432
17.3769,83097
17.3843,81274
17.3917,80704
17.399,81342
17.4064,79554
17.4138,79121
17.4212,77884
17.4286,78015
17.4359,78397
17.4433,77769
17.4507,76567
17.4581,77690
17.4654,77297
17.4728,77055
17.4802,78597
17.4876,79658
