D:\Data GC-MS\2017\ST\SOLER AND HPD\S9 - SOL EVAP 75% RESTEK.D 06 Feb 17  01:38 pm
Start of data points
1.2937,268483
1.30045,224860
1.30718,193701
1.31393,171812
1.32067,164115
1.32742,147692
1.33417,129848
1.3409,138904
1.34765,141045
1.35438,138089
1.36113,142266
1.36787,131885
1.37462,123280
1.38137,113855
1.3881,96448
1.39485,98630
1.40158,82702
1.40833,76765
1.41507,76747
1.42182,64623
1.42855,60758
1.4353,63644
1.44205,53520
1.44878,56598
1.45553,52915
1.46227,50478
1.46902,49866
1.47575,44213
1.4825,47057
1.48925,44568
1.5101,113187
1.51748,133395
1.52485,149252
1.53223,157048
1.53962,148694
1.54698,146024
1.55437,141992
1.56173,137092
1.56912,131707
1.5765,134475
1.58387,333873
1.59125,823526
1.59862,1111117
1.606,1263393
1.61337,2076690
1.62075,20422644
1.62813,19462576
1.6355,18822992
1.64288,18490694
1.65025,18393078
1.65763,19351558
1.66502,20673696
1.67238,21989720
1.67977,22946638
1.68713,23747600
1.69452,24402616
1.70188,24900390
1.70927,25236390
1.71665,25414324
1.72402,25570340
1.7314,24895684
1.73877,25008044
1.74615,26849960
1.75353,26819608
1.7609,26887788
1.76828,26487264
1.77565,26501968
1.78303,26618746
1.7904,26835876
1.79778,27172378
1.80517,27576312
1.81253,28159204
1.81992,28819340
1.82728,29405906
1.83467,29880458
1.84205,30109268
1.84942,30248848
1.8568,30178874
1.86417,30114654
1.87155,30361564
1.87892,30150600
1.8863,30009436
1.89368,29869874
1.90105,29815052
1.90843,30093950
1.9158,29994708
1.92318,30046812
1.93057,30040956
1.93793,30022602
1.94532,30006436
1.95268,29959356
1.96007,29801814
1.96743,29518960
1.97482,29081160
1.9822,28538070
1.98957,27867760
1.99695,27180792
2.00432,26524936
2.0117,25856330
2.01907,25301536
2.02645,24717308
2.03383,24089240
2.0412,23277756
2.04858,22364554
2.05595,21313860
2.06333,20175332
2.07072,18975396
2.07808,17669282
2.08547,16320880
2.09283,14984956
2.10022,13757974
2.10758,12815740
2.11497,12411897
2.12235,11192133
2.12972,9809764
2.1371,8698151
2.14447,7723198
2.15185,6902821
2.15923,6135793
2.1666,5485450
2.17398,4932664
2.18135,4415545
2.18873,3940125
2.1961,3525050
2.20348,3171529
2.21087,2832104
2.21823,2528710
2.22562,2264773
2.23298,2038035
2.24037,1834017
2.24775,1649781
2.25512,1501476
2.2625,1364060
2.26987,1239648
2.27725,1122331
2.28462,1018086
2.292,929888
2.29938,853968
2.30675,781799
2.31413,719542
2.3215,668325
2.32888,620481
2.33627,577684
2.34363,537583
2.35102,503316
2.35838,473896
2.36577,441918
2.37313,418874
2.38052,399610
2.3879,377315
2.39527,361795
2.40265,345129
2.41002,332606
2.4174,331282
2.42478,336510
2.43215,344534
2.43953,372628
2.4469,406412
2.45428,399411
2.46165,363925
2.46903,331249
2.47642,309701
2.48378,292927
2.49117,284577
2.49853,279081
2.50592,267618
2.5133,261726
2.52067,251584
2.52805,248774
2.53542,292488
2.5428,333839
2.55017,306198
2.55755,275175
2.56493,252653
2.5723,237871
2.57968,229083
2.58705,222006
2.59443,215064
2.6018,208113
2.60918,214166
2.61657,248657
2.62393,270398
2.63132,256473
2.63868,239993
2.64607,224659
2.65345,214751
2.66082,206468
2.6682,199857
2.67557,195269
2.68295,192496
2.69032,194812
2.6977,205926
2.70508,232073
2.71245,288612
2.71983,320503
2.7272,320458
2.73458,303399
2.74197,290705
2.74933,269664
2.75672,251496
2.76408,235833
2.77147,221325
2.77883,210238
2.78622,201972
2.7936,197764
2.80097,187979
2.80835,183124
2.81572,178581
2.8231,173521
2.83048,170136
2.83785,166976
2.84523,165198
2.8526,161813
2.85998,159214
2.86735,157921
2.87473,157042
2.88212,154157
2.88948,154007
2.89687,152515
2.90423,150967
2.91162,151033
2.919,148589
2.92637,146927
2.93375,148028
2.94112,146873
2.9485,146209
2.95587,150189
2.96325,155084
2.97063,155909
2.978,154858
2.98538,152602
2.99275,150758
3.00013,146914
3.00752,146989
3.01488,144939
3.02227,143655
3.02963,142901
3.03702,141888
3.04438,140592
3.05177,142395
3.05915,140078
3.06652,139508
3.0739,140244
3.08127,140337
3.08865,141625
3.09603,138705
3.1034,135982
3.11078,138137
3.11815,137674
3.12553,135089
3.1329,134161
3.14028,134113
3.14767,132802
3.15503,133862
3.16242,148283
3.16978,195591
3.17717,193892
3.18453,174753
3.19192,158682
3.1993,151528
3.20667,149850
3.21405,147974
3.22142,141808
3.2288,139364
3.23618,135437
3.24355,134727
3.25093,141681
3.2583,150143
3.26568,147447
3.27305,140881
3.28043,134293
3.28782,132738
3.29518,127688
3.30257,130333
3.30993,126193
3.31732,126562
3.3247,128511
3.33207,144457
3.33945,165971
3.34682,168479
3.3542,152180
3.36157,141835
3.36895,134580
3.37633,132042
3.3837,131038
3.39108,140343
3.39845,162165
3.40583,173389
3.41322,166131
3.42058,159008
3.42797,211503
3.43533,1256440
3.44272,6170329
3.45008,11314950
3.45747,11105800
3.46485,7900663
3.47222,5439017
3.4796,4060328
3.48697,3097593
3.49435,2250262
3.50173,1718821
3.5091,1347283
3.51648,1026175
3.52385,787992
3.53123,622654
3.5386,496151
3.54598,394188
3.55337,328032
3.56073,276695
3.56812,240611
3.57548,209840
3.58287,183357
3.59025,166628
3.59762,154268
3.605,146788
3.61237,136146
3.61975,130163
3.62712,127855
3.6345,122456
3.64188,122473
3.64925,140214
3.65663,157414
3.664,150945
3.67138,138588
3.67877,130238
3.68613,125329
3.69352,123699
3.70088,123360
3.70827,122407
3.71563,118920
3.72302,121188
3.7304,118801
3.73777,117583
3.74515,121938
3.75252,142618
3.7599,157644
3.76727,144976
3.77465,149356
3.78203,230440
3.7894,361150
3.79678,377942
3.80415,316349
3.81153,264036
3.81892,221637
3.82628,193359
3.83367,166803
3.84103,148685
3.84842,139759
3.85578,134032
3.86317,130285
3.87055,125399
3.87792,121165
3.8853,119420
3.89267,118608
3.90005,118696
3.90743,122349
3.9148,123632
3.92218,122945
3.92955,128566
3.93693,130232
3.9443,128763
3.95168,125422
3.95907,120128
3.96643,120259
3.97382,149132
3.98118,232938
3.98857,260914
3.99595,210403
4.00332,164688
4.0107,144530
4.01807,132148
4.02545,125514
4.03282,118467
4.0402,115819
4.04758,115247
4.05495,117293
4.06233,111948
4.0697,109729
4.07708,109713
4.08447,111486
4.09183,106850
4.09922,103626
4.10658,101023
4.11397,105532
4.12133,123023
4.12872,132775
4.1361,123313
4.14347,114565
4.15085,106521
4.15822,103951
4.1656,100204
4.17298,98469
4.18035,100625
4.18773,101700
4.1951,103147
4.20248,109504
4.20985,111616
4.21723,108903
4.22462,107509
4.23198,107987
4.23937,105323
4.24673,101756
4.25412,101023
4.2615,99079
4.26887,98074
4.27625,96280
4.28362,97328
4.291,99448
4.29837,96970
4.30575,98456
4.31313,96375
4.3205,97274
4.32788,96291
4.33525,95138
4.34263,94271
4.35,94867
4.35738,93208
4.36477,92340
4.37213,91624
4.37952,93731
4.38688,93158
4.39427,97895
4.40165,101975
4.40902,100548
4.4164,98801
4.42377,96758
4.43115,95557
4.43852,92697
4.4459,92912
4.45328,95192
4.46065,96671
4.46803,99630
4.4754,98881
4.48278,95410
4.49017,92426
4.49753,91816
4.50492,92084
4.51228,90643
4.51967,90137
4.52703,90740
4.53442,104317
4.5418,184512
4.54917,345333
4.55655,395402
4.56392,303552
4.5713,207304
4.57868,153063
4.58605,123627
4.59343,107751
4.6008,98145
4.60818,94734
4.61555,91921
4.62293,113130
4.63032,321108
4.63768,1003395
4.64507,1628018
4.65243,1413566
4.65982,884516
4.6672,508234
4.67457,320465
4.68195,210794
4.68932,150097
4.6967,119160
4.70407,104208
4.71145,98066
4.71883,96635
4.7262,93360
4.73358,90915
4.74095,87717
4.74833,87333
4.75572,86180
4.76308,86418
4.77047,85535
4.77783,86123
4.78522,83784
4.79258,85408
4.79997,84620
4.80735,84903
4.81472,87910
4.8221,89879
4.82947,90525
4.83685,89924
4.84423,88664
4.8516,90849
4.85898,88379
4.86635,87903
4.87373,88691
4.8811,89840
4.88848,90280
4.89587,90842
4.90323,91648
4.91062,96142
4.91798,138191
4.92537,258818
4.93273,328350
4.94012,255604
4.9475,171512
4.95487,161782
4.96225,339853
4.96962,600058
4.977,545351
4.98438,340895
4.99175,205268
4.99913,135536
5.0065,104195
5.01388,92819
5.02125,84955
5.02863,83583
5.03602,82891
5.04338,83776
5.05077,84120
5.05813,84963
5.06552,84894
5.0729,83611
5.08027,84056
5.08765,84708
5.09502,83790
5.1024,82726
5.10977,81205
5.11715,80955
5.12453,81408
5.1319,84986
5.13928,98463
5.14665,110119
5.15403,105667
5.16142,95831
5.16878,88001
5.17617,83014
5.18353,84392
5.19092,86154
5.19828,105629
5.20567,151661
5.21305,163686
5.22042,133181
5.2278,101891
5.23517,92407
5.24255,87848
5.24993,86437
5.2573,86063
5.26468,87850
5.27205,85460
5.27943,84058
5.2868,83577
5.29418,90940
5.30157,100304
5.30893,96587
5.31632,89829
5.32368,85697
5.33107,80921
5.33845,80734
5.34582,83139
5.3532,90040
5.36057,99416
5.36795,108469
5.37532,108418
5.3827,98698
5.39008,96873
5.39745,92325
5.40483,86946
5.4122,82327
5.41958,80619
5.42697,79956
5.43433,81602
5.44172,85504
5.44908,85442
5.45647,82773
5.46383,82457
5.47122,80884
5.4786,80925
5.48597,79832
5.49335,80667
5.50072,78467
5.5081,78344
5.51547,78499
5.52285,79399
5.53023,79058
5.5376,78995
5.54498,79232
5.55235,77533
5.55973,77743
5.56712,79085
5.57448,79030
5.58187,77683
5.58923,77191
5.59662,77976
5.60398,78082
5.61137,81139
5.61875,84573
5.62612,93158
5.6335,144333
5.64087,220536
5.64825,213999
5.65563,143021
5.663,104052
5.67038,96836
5.67775,98597
5.68513,109283
5.6925,126459
5.69988,115108
5.70727,98363
5.71463,127208
5.72202,267107
5.72938,518043
5.73677,588062
5.74415,526488
5.75152,532173
5.7589,366197
5.76627,179121
5.77365,109685
5.78102,87728
5.7884,92548
5.79578,123769
5.80315,187173
5.81053,228716
5.8179,176727
5.82528,116115
5.83267,88068
5.84003,81781
5.84742,80187
5.85478,81900
5.86217,81302
5.86953,80157
5.87692,80109
5.8843,78955
5.89167,80262
5.89905,80969
5.90642,81120
5.9138,78362
5.92118,77593
5.92855,79209
5.93593,88994
5.9433,130188
5.95068,163541
5.95805,136289
5.96543,103918
5.97282,92601
5.98018,88084
5.98757,83777
5.99493,87289
6.00232,88434
6.0097,86781
6.01707,84006
6.02445,80832
6.03182,77855
6.0392,79677
6.04657,83073
6.05395,82985
6.06133,85526
6.0687,88320
6.07608,83923
6.08345,86686
6.09083,201620
6.09822,562243
6.10558,793956
6.11297,712658
6.12033,993900
6.12772,1139856
6.13508,607260
6.14247,196115
6.14985,91640
6.15722,73954
6.1646,71231
6.17197,72819
6.17935,70102
6.18672,67825
6.1941,66565
6.20148,65187
6.20885,66766
6.21623,64853
6.2236,64584
6.23098,66316
6.23837,67282
6.24573,64931
6.25312,65531
6.26048,68846
6.26787,68867
6.27523,67905
6.28262,67821
6.29,69327
6.29737,70646
6.30475,70834
6.31212,68611
6.3195,67104
6.32688,66550
6.33425,66918
6.34163,66180
6.349,68465
6.35638,66898
6.36375,67250
6.37113,75125
6.37852,94435
6.38588,93028
6.39327,75605
6.40063,66575
6.40802,69209
6.4154,74413
6.42277,76852
6.43015,94713
6.43752,143510
6.4449,162652
6.45227,116148
6.45965,81176
6.46703,69055
6.4744,65242
6.48178,64342
6.48915,64301
6.49653,64578
6.50392,65200
6.51128,69227
6.51867,77323
6.52603,82580
6.53342,77186
6.54078,68726
6.54817,71432
6.55555,80862
6.56292,84262
6.5703,75661
6.57767,67305
6.58505,68922
6.59243,80700
6.5998,95686
6.60718,88948
6.61455,72910
6.62193,64531
6.6293,63132
6.63668,63981
6.64407,61332
6.65143,61810
6.65882,61558
6.66618,63512
6.67357,63392
6.68095,61944
6.68832,63225
6.6957,63997
6.70307,65525
6.71045,66899
6.71782,74069
6.7252,84567
6.73258,93051
6.73995,121989
6.74733,128886
6.7547,102762
6.76208,93460
6.76945,87871
6.77683,92953
6.78422,120777
6.79158,142386
6.79897,147031
6.80633,114880
6.81372,90726
6.8211,95260
6.82847,106596
6.83585,108476
6.84322,83460
6.8506,66481
6.85797,64664
6.86535,65577
6.87273,65886
6.8801,64194
6.88748,63070
6.89485,68486
6.90223,86316
6.90962,92374
6.91698,85497
6.92437,81517
6.93173,74220
6.93912,64484
6.94648,62687
6.95387,60765
6.96125,61198
6.96862,59674
6.976,60790
6.98337,60976
6.99075,60158
6.99813,60822
7.0055,60666
7.01288,64131
7.02025,68306
7.02763,75843
7.035,75982
7.04238,76409
7.04977,85424
7.05713,84626
7.06452,70845
7.07188,63922
7.07927,63129
7.08665,68602
7.09402,72866
7.1014,72278
7.10877,82371
7.11615,108414
7.12352,113531
7.1309,89583
7.13828,72026
7.14565,65479
7.15303,66517
7.1604,68662
7.16778,66791
7.17517,64380
7.18253,61452
7.18992,63101
7.19728,78087
7.20467,209258
7.21203,582900
7.21942,657758
7.2268,279851
7.23417,93497
7.24155,72833
7.24892,71300
7.2563,68013
7.26368,63887
7.27105,64298
7.27843,66866
7.2858,66140
7.29318,64739
7.30055,63526
7.30793,66304
7.31532,65626
7.32268,62235
7.33007,60293
7.33743,61903
7.34482,63136
7.35218,65600
7.35957,68167
7.36695,65235
7.37432,62974
7.3817,64422
7.38907,63233
7.39645,63960
7.40383,63859
7.4112,62357
7.41858,59834
7.42595,61221
7.43333,61811
7.4407,62996
7.44808,67016
7.45547,72476
7.46283,67912
7.47022,62499
7.47758,59481
7.48497,59125
7.49235,64265
7.49972,72249
7.5071,75953
7.51447,66362
7.52185,59760
7.52922,58777
7.5366,59470
7.54398,58733
7.55135,56799
7.55873,59056
7.5661,59627
7.57348,59289
7.58087,57550
7.58823,59301
7.59562,59617
7.60298,58479
7.61037,58364
7.61773,58072
7.62512,61866
7.6325,63747
7.63987,62165
7.64725,61203
7.65462,64825
7.662,67684
7.66938,63124
7.67675,59265
7.68413,57927
7.6915,59536
7.69888,58793
7.70625,61091
7.71363,64862
7.72102,64179
7.72838,63092
7.73577,62707
7.74313,61380
7.75052,57984
7.7579,57602
7.76527,58072
7.77265,56750
7.78002,59592
7.7874,58469
7.79477,58409
7.80215,57551
7.80953,56223
7.8169,60453
7.82428,61901
7.83165,65028
7.83903,64722
7.84642,63542
7.85378,60934
7.86117,58086
7.86853,64304
7.87592,67773
7.88328,61776
7.89067,56395
7.89805,53798
7.90542,54402
7.9128,54086
7.92017,53910
7.92755,53167
7.93492,54327
7.9423,56727
7.94968,58993
7.95705,56769
7.96443,56682
7.9718,57357
7.97918,55290
7.98657,54777
7.99393,53724
8.00132,52602
8.00868,51926
8.01607,52013
8.02343,51880
8.03082,51847
8.0382,51968
8.04557,52451
8.05295,52925
8.06032,53283
8.0677,51800
8.07508,51818
8.08245,50795
8.08983,50801
8.0972,51368
8.10458,50578
8.11195,51470
8.11933,51687
8.12672,51263
8.13408,51478
8.14147,52591
8.14883,52751
8.15622,52544
8.1636,51924
8.17097,52071
8.17835,51337
8.18572,52510
8.1931,55240
8.20047,63818
8.20785,72550
8.21523,68131
8.2226,76660
8.22998,186664
8.23735,357699
8.24473,254910
8.25212,97223
8.25948,58611
8.26687,54698
8.27423,53571
8.28162,53597
8.28898,53023
8.29637,52375
8.30375,53743
8.31112,55072
8.3185,54675
8.32587,52284
8.33325,53129
8.34063,52492
8.348,52174
8.35538,50529
8.36275,51400
8.37013,52474
8.3775,53550
8.38488,52781
8.39227,50942
8.39963,51249
8.40702,51007
8.41438,50959
8.42177,51896
8.42915,51303
8.43652,50874
8.4439,50855
8.45127,51437
8.45865,51639
8.46602,51116
8.4734,51425
8.48078,51416
8.48815,50323
8.49553,51071
8.5029,50010
8.51028,51363
8.51765,52319
8.52503,51527
8.53242,51591
8.53978,52072
8.54717,51268
8.55453,51539
8.56192,50639
8.5693,51643
8.57667,51256
8.58405,50794
8.59142,51356
8.5988,51024
8.60617,50715
8.61355,51155
8.62093,50945
8.6283,50698
8.63568,50210
8.64305,50073
8.65043,50203
8.65782,50680
8.66518,51012
8.67257,52035
8.67993,51426
8.68732,52918
8.69468,51115
8.70207,50630
8.70945,50286
8.71682,51319
8.7242,49403
8.73157,49987
8.73895,51001
8.74633,50816
8.7537,50816
8.76108,50359
8.76845,49787
8.77583,50753
8.7832,49425
8.79058,49981
8.79797,50035
8.80533,51712
8.81272,49329
8.82008,50615
8.82747,51015
8.83485,49877
8.84222,49992
8.8496,50035
8.85697,50069
8.86435,51016
8.87172,50346
8.8791,50489
8.88648,48531
8.89385,49281
8.90123,50101
8.9086,49702
8.91598,49909
8.92337,50582
8.93073,49706
8.93812,49468
8.94548,49385
8.95287,48750
8.96023,50516
8.96762,49962
8.975,50417
8.98237,49424
8.98975,49550
8.99712,48711
9.0045,49088
9.01188,49673
9.01925,53133
9.02663,55597
9.034,51542
9.04138,49323
9.04875,49601
9.05613,49720
9.06352,48932
9.07088,48284
9.07827,48725
9.08563,49518
9.09302,49092
9.10038,50513
9.10777,49831
9.11515,49274
9.12252,49292
9.1299,49387
9.13727,49523
9.14465,49887
9.15203,49999
9.1594,51105
9.16678,51585
9.17415,54510
9.18153,56862
9.1889,62594
9.19628,68231
9.20367,66385
9.21103,62752
9.21842,60990
9.22578,62813
9.23317,63595
9.24055,64379
9.24792,63062
9.2553,62828
9.26267,63793
9.27005,63877
9.27742,66581
9.2848,66881
9.29218,67645
9.29955,64304
9.30693,64643
9.3143,63206
9.32168,62999
9.32907,64391
9.33643,64001
9.34382,63976
9.35118,66478
9.35857,67155
9.36593,65769
9.37332,63465
9.3807,63764
9.38807,63070
9.39545,64909
9.40282,64454
9.4102,63163
9.41758,59161
9.42495,54768
9.43233,54026
9.4397,55223
9.44708,59260
9.45445,57302
9.46183,52818
9.46922,49906
9.47658,48862
9.48397,49941
9.49133,48573
9.49872,49206
9.5061,48587
9.51347,48728
9.52085,49671
9.52822,50361
9.5356,51834
9.54297,50486
9.55035,50530
9.55773,49662
9.5651,49586
9.57248,48653
9.57985,48038
9.58723,48857
9.59462,49566
9.60198,51163
9.60937,50917
9.61673,50294
9.62412,49507
9.63148,50092
9.63887,49321
9.64625,49157
9.65362,48545
9.661,48109
9.66837,48539
9.67575,48450
9.68312,48703
9.6905,49308
9.69788,50096
9.70525,48915
9.71263,47835
9.72,47942
9.72738,47222
9.73477,47594
9.74213,48721
9.74952,48139
9.75688,48857
9.76427,49757
9.77163,50591
9.77902,48858
9.7864,47914
9.79377,47068
9.80115,48103
9.80852,47970
9.8159,48748
9.82328,47730
9.83065,48731
9.83803,48624
9.8454,48779
9.85278,47993
9.86015,47408
9.86753,47615
9.87492,49323
9.88228,48313
9.88967,48182
9.89703,49277
9.90442,48495
9.9118,47826
9.91917,47558
9.92655,47954
9.93392,48556
9.9413,48674
9.94867,47319
9.95605,47220
9.96343,47852
9.9708,47621
9.97818,48027
9.98555,47605
9.99293,48097
10.0003,48234
10.0077,47730
10.0151,47685
10.0224,48353
10.0298,48931
10.0372,48155
10.0446,48224
10.052,47800
10.0593,47424
10.0667,47899
10.0741,48436
10.0815,49687
10.0888,55239
10.0962,65839
10.1036,65114
10.111,55001
10.1183,49546
10.1257,47637
10.1331,47994
10.1405,49327
10.1478,48759
10.1552,48376
10.1626,48595
10.17,48882
10.1774,49544
10.1847,49027
10.1921,49065
10.1995,49216
10.2069,48326
10.2142,47430
10.2216,48731
10.229,47676
10.2364,49682
10.2437,48895
10.2511,47786
10.2585,48157
10.2659,47039
10.2732,48507
10.2806,47724
10.288,48406
10.2954,49304
10.3027,48628
10.3101,48405
10.3175,48356
10.3249,48980
10.3323,48761
10.3396,48910
10.347,48578
10.3544,48171
10.3618,49680
10.3691,50268
10.3765,49775
10.3839,49858
10.3913,50640
10.3986,51310
10.406,49805
10.4134,49883
10.4208,50491
10.4281,52595
10.4355,52120
10.4429,50366
10.4503,50090
10.4577,51528
10.465,51873
10.4724,52681
10.4798,54097
10.4872,54288
10.4945,53682
10.5019,54824
10.5093,56701
10.5167,60844
10.524,61333
10.5314,60888
10.5388,56746
10.5462,58224
10.5535,63002
10.5609,69126
10.5683,70043
10.5757,64421
10.5831,61730
10.5904,60814
10.5978,70590
10.6052,73977
10.6126,66326
10.6199,68532
10.6273,114341
10.6347,198742
10.6421,220702
10.6494,148572
10.6568,89625
10.6642,73081
10.6716,70817
10.6789,68597
10.6863,69011
10.6937,71029
10.7011,86410
10.7084,107571
10.7158,103866
10.7232,80295
10.7306,73403
10.738,74062
10.7453,75775
10.7527,73822
10.7601,75529
10.7675,78294
10.7748,78582
10.7822,75806
10.7896,84368
10.797,100783
10.8043,104254
10.8117,96980
10.8191,91334
10.8265,83667
10.8338,85888
10.8412,87679
10.8486,84588
10.856,83530
10.8634,84882
10.8707,95199
10.8781,119112
10.8855,152290
10.8929,176789
10.9002,175094
10.9076,179152
10.915,170774
10.9224,156978
10.9297,155518
10.9371,360986
10.9445,1333701
10.9519,2148006
10.9592,1232269
10.9666,367363
10.974,182673
10.9814,154028
10.9888,149457
10.9961,156948
11.0035,157909
11.0109,163793
11.0183,180327
11.0256,194526
11.033,189814
11.0404,166531
11.0478,155361
11.0551,159082
11.0625,179289
11.0699,198247
11.0773,198710
11.0846,184957
11.092,163565
11.0994,153825
11.1068,148622
11.1141,155780
11.1215,170082
11.1289,200259
11.1363,280529
11.1437,460162
11.151,496203
11.1584,318291
11.1658,212931
11.1732,197009
11.1805,205962
11.1879,227625
11.1953,210925
11.2027,193076
11.21,195335
11.2174,190141
11.2248,195857
11.2322,218136
11.2395,216458
11.2469,210377
11.2543,205677
11.2617,190029
11.2691,192328
11.2764,209086
11.2838,221303
11.2912,229694
11.2986,243891
11.3059,264527
11.3133,307680
11.3207,403810
11.3281,493342
11.3354,507826
11.3428,483852
11.3502,469033
11.3576,429370
11.3649,437694
11.3723,475536
11.3797,500370
11.3871,474149
11.3945,539355
11.4018,541925
11.4092,449041
11.4166,541579
11.424,742878
11.4313,708947
11.4387,491470
11.4461,353063
11.4535,398743
11.4608,691021
11.4682,925091
11.4756,731886
11.483,612328
11.4903,672487
11.4977,669208
11.5051,541880
11.5125,472510
11.5198,587211
11.5272,782551
11.5346,695661
11.542,471914
11.5494,421723
11.5567,457795
11.5641,472445
11.5715,461187
11.5789,465924
11.5862,448601
11.5936,462540
11.601,483648
11.6084,479440
11.6157,428408
11.6231,446080
11.6305,485448
11.6379,536000
11.6452,534154
11.6526,524625
11.66,521245
11.6674,500665
11.6748,468949
11.6821,513985
11.6895,624099
11.6969,681607
11.7043,598749
11.7116,516321
11.719,508272
11.7264,526575
11.7338,554521
11.7411,1026193
11.7485,3586087
11.7559,7789000
11.7633,6833391
11.7706,2323296
11.778,869395
11.7854,697807
11.7928,703410
11.8002,784422
11.8075,880059
11.8149,911176
11.8223,838423
11.8297,813983
11.837,811614
11.8444,822943
11.8518,812571
11.8592,748897
11.8665,710505
11.8739,711302
11.8813,687205
11.8887,674175
11.896,750161
11.9034,872774
11.9108,868727
11.9182,848891
11.9256,915643
11.9329,901824
11.9403,821913
11.9477,779375
11.9551,819857
11.9624,828766
11.9698,813865
11.9772,818902
11.9846,849188
11.9919,854110
11.9993,776348
12.0067,760842
12.0141,765669
12.0214,788960
12.0288,855900
12.0362,858493
12.0436,806721
12.0509,759862
12.0583,721046
12.0657,718749
12.0731,792898
12.0805,849854
12.0878,854944
12.0952,931832
12.1026,1222807
12.11,1421079
12.1173,1429541
12.1247,1806884
12.1321,2942317
12.1395,3633893
12.1468,2685751
12.1542,1591535
12.1616,1192569
12.169,978424
12.1763,919683
12.1837,902799
12.1911,914250
12.1985,1091327
12.2059,1220325
12.2132,1127181
12.2206,1040420
12.228,1097813
12.2354,1364890
12.2427,1924880
12.2501,1989454
12.2575,1342053
12.2649,993162
12.2722,961459
12.2796,1038852
12.287,1174422
12.2944,1271098
12.3017,1447289
12.3091,1486491
12.3165,1216518
12.3239,1005915
12.3313,1022059
12.3386,1019392
12.346,973246
12.3534,930164
12.3608,960054
12.3681,979825
12.3755,963023
12.3829,959959
12.3903,985657
12.3976,1070092
12.405,1106293
12.4124,1040440
12.4198,1013472
12.4271,1074894
12.4345,1148586
12.4419,1170541
12.4493,1146267
12.4566,1102106
12.464,1072514
12.4714,1158514
12.4788,1177233
12.4862,1096255
12.4935,1106427
12.5009,1222874
12.5083,2526722
12.5157,6767405
12.523,9763021
12.5304,6908374
12.5378,2327109
12.5452,1179207
12.5525,1719276
12.5599,4248828
12.5673,7556134
12.5747,7412380
12.582,3880398
12.5894,1858293
12.5968,1616740
12.6042,1596452
12.6116,1425257
12.6189,1282000
12.6263,1265031
12.6337,1285669
12.6411,1210627
12.6484,1100509
12.6558,1047194
12.6632,1126665
12.6706,1184420
12.6779,1228197
12.6853,1268821
12.6927,1317861
12.7001,1292190
12.7074,1273474
12.7148,1304141
12.7222,1278882
12.7296,1207209
12.737,1209564
12.7443,1192536
12.7517,1183734
12.7591,1332316
12.7665,1605048
12.7738,1790247
12.7812,1613946
12.7886,1330599
12.796,1211397
12.8033,1163811
12.8107,1127279
12.8181,1100511
12.8255,1186305
12.8328,1351847
12.8402,1665446
12.8476,1914279
12.855,1855639
12.8623,1642417
12.8697,1483848
12.8771,1413803
12.8845,1293439
12.8919,1342210
12.8992,1459416
12.9066,1459380
12.914,1398912
12.9214,1353683
12.9287,1301682
12.9361,1383575
12.9435,1535861
12.9509,1380753
12.9582,1201473
12.9656,1243003
12.973,1551377
12.9804,1960543
12.9877,2017893
12.9951,1631612
13.0025,1287354
13.0099,1255610
13.0173,1427069
13.0246,1429164
13.032,1346065
13.0394,1543771
13.0468,1659858
13.0541,1427786
13.0615,1154587
13.0689,1066014
13.0763,1073884
13.0836,1157787
13.091,1163573
13.0984,1218056
13.1058,1237048
13.1131,1267890
13.1205,1267433
13.1279,1236184
13.1353,1173472
13.1427,1185367
13.15,1327148
13.1574,1491549
13.1648,1479445
13.1722,1328801
13.1795,1240267
13.1869,1217113
13.1943,1255674
13.2017,1277885
13.209,1230581
13.2164,1133024
13.2238,1159914
13.2312,1729247
13.2385,4199560
13.2459,7630244
13.2533,6917376
13.2607,2800764
13.268,1275755
13.2754,1103134
13.2828,1110501
13.2902,1090661
13.2976,1180609
13.3049,1501942
13.3123,2285619
13.3197,3180148
13.3271,2980325
13.3344,2009210
13.3418,1544064
13.3492,1312662
13.3566,1110281
13.3639,1035413
13.3713,1007302
13.3787,951261
13.3861,960028
13.3934,973772
13.4008,1014312
13.4082,1022144
13.4156,1007513
13.423,958485
13.4303,971535
13.4377,1044092
13.4451,1123355
13.4525,1120791
13.4598,1054158
13.4672,976197
13.4746,942958
13.482,990416
13.4893,1146210
13.4967,1196788
13.5041,1152373
13.5115,1068488
13.5188,994973
13.5262,995559
13.5336,1113614
13.541,1273027
13.5484,1309786
13.5557,1341028
13.5631,1293119
13.5705,1205888
13.5779,1084708
13.5852,1039157
13.5926,1178549
13.6,1268266
13.6074,1198007
13.6147,1111718
13.6221,1066672
13.6295,1013488
13.6369,974879
13.6442,988659
13.6516,1135389
13.659,1128358
13.6664,1021101
13.6738,965477
13.6811,1066582
13.6885,1149626
13.6959,1035046
13.7033,925022
13.7106,919063
13.718,935363
13.7254,929443
13.7328,857396
13.7401,1014442
13.7475,1293695
13.7549,1308823
13.7623,1144432
13.7696,1036299
13.777,939788
13.7844,884949
13.7918,890766
13.7991,925407
13.8065,961491
13.8139,963866
13.8213,960436
13.8287,895450
13.836,814913
13.8434,813450
13.8508,848395
13.8582,842737
13.8655,817319
13.8729,834964
13.8803,949269
13.8877,1187937
13.895,1269838
13.9024,1180435
13.9098,1091682
13.9172,1218309
13.9245,1964586
13.9319,4143389
13.9393,5130151
13.9467,3034723
13.9541,1224834
13.9614,882353
13.9688,892273
13.9762,884138
13.9836,810215
13.9909,768867
13.9983,771354
14.0057,807975
14.0131,834726
14.0204,796455
14.0278,756556
14.0352,744924
14.0426,752712
14.0499,747745
14.0573,684083
14.0647,673080
14.0721,745776
14.0795,786959
14.0868,787224
14.0942,738928
14.1016,704770
14.109,711921
14.1163,715133
14.1237,719875
14.1311,830456
14.1385,935902
14.1458,874009
14.1532,786460
14.1606,747956
14.168,786101
14.1753,944380
14.1827,988956
14.1901,857934
14.1975,793559
14.2048,846667
14.2122,863970
14.2196,812358
14.227,761483
14.2344,753813
14.2417,755654
14.2491,743599
14.2565,723064
14.2639,702442
14.2712,707224
14.2786,685535
14.286,632119
14.2934,606660
14.3007,681357
14.3081,812602
14.3155,856253
14.3229,758315
14.3302,676872
14.3376,729022
14.345,912148
14.3524,852043
14.3598,660072
14.3671,596705
14.3745,627426
14.3819,686573
14.3893,726626
14.3966,764748
14.404,755973
14.4114,656556
14.4188,608352
14.4261,641854
14.4335,690303
14.4409,640718
14.4483,574842
14.4556,543270
14.463,543990
14.4704,566720
14.4778,573991
14.4852,542837
14.4925,517285
14.4999,527127
14.5073,531454
14.5147,533849
14.522,528775
14.5294,500348
14.5368,475741
14.5442,467262
14.5515,539768
14.5589,1083378
14.5663,2527471
14.5737,2795560
14.581,1328445
14.5884,656015
14.5958,550874
14.6032,514283
14.6105,488999
14.6179,477673
14.6253,476097
14.6327,479652
14.6401,477254
14.6474,482005
14.6548,461573
14.6622,446243
14.6696,460349
14.6769,476959
14.6843,482378
14.6917,465070
14.6991,422139
14.7064,408333
14.7138,437888
14.7212,447717
14.7286,421759
14.7359,409818
14.7433,415044
14.7507,421113
14.7581,421469
14.7655,416192
14.7728,431990
14.7802,436226
14.7876,435546
14.795,450438
14.8023,445677
14.8097,443072
14.8171,493810
14.8245,483467
14.8318,440546
14.8392,409870
14.8466,398725
14.854,405107
14.8613,431558
14.8687,468891
14.8761,516098
14.8835,467541
14.8909,438022
14.8982,463098
14.9056,488753
14.913,438053
14.9204,400107
14.9277,397665
14.9351,377877
14.9425,338576
14.9499,335498
14.9572,337746
14.9646,332730
14.972,389320
14.9794,520780
14.9867,568814
14.9941,492516
15.0015,422630
15.0089,423897
15.0162,447583
15.0236,478566
15.031,419276
15.0384,355100
15.0458,334105
15.0531,355335
15.0605,368742
15.0679,329292
15.0753,291313
15.0826,300935
15.09,337895
15.0974,334023
15.1048,319662
15.1121,477143
15.1195,1208678
15.1269,1473623
15.1343,727533
15.1416,355239
15.149,285361
15.1564,266740
15.1638,265422
15.1712,269000
15.1785,263056
15.1859,251900
15.1933,257885
15.2007,264475
15.208,262699
15.2154,252249
15.2228,240158
15.2302,243366
15.2375,243722
15.2449,236914
15.2523,221698
15.2597,216310
15.267,218117
15.2744,221603
15.2818,231821
15.2892,237986
15.2966,243850
15.3039,237998
15.3113,226564
15.3187,229296
15.3261,229972
15.3334,230682
15.3408,228756
15.3482,217052
15.3556,212633
15.3629,210817
15.3703,203429
15.3777,208994
15.3851,214284
15.3924,201601
15.3998,195891
15.4072,195115
15.4146,191132
15.422,196940
15.4293,194588
15.4367,207410
15.4441,222940
15.4515,226156
15.4588,224810
15.4662,217423
15.4736,211625
15.481,204484
15.4883,201673
15.4957,192715
15.5031,184568
15.5105,184624
15.5178,185531
15.5252,178993
15.5326,175595
15.54,178156
15.5473,186362
15.5547,194781
15.5621,189548
15.5695,187482
15.5769,169317
15.5842,156659
15.5916,150197
15.599,166771
15.6064,236316
15.6137,529651
15.6211,612348
15.6285,312342
15.6359,187644
15.6432,163971
15.6506,164515
15.658,164824
15.6654,162048
15.6727,153228
15.6801,149446
15.6875,150905
15.6949,152726
15.7023,155868
15.7096,156144
15.717,149268
15.7244,144086
15.7318,140894
15.7391,138154
15.7465,135283
15.7539,135257
15.7613,134009
15.7686,127618
15.776,129281
15.7834,133161
15.7908,139702
15.7981,141231
15.8055,138365
15.8129,133761
15.8203,127214
15.8277,129027
15.835,133618
15.8424,131763
15.8498,128926
15.8572,123430
15.8645,123149
15.8719,124861
15.8793,130010
15.8867,127164
15.894,127420
15.9014,132991
15.9088,132769
15.9162,128123
15.9235,129749
15.9309,125767
15.9383,129019
15.9457,129952
15.953,129325
15.9604,125742
15.9678,126598
15.9752,131998
15.9826,130859
15.9899,127263
15.9973,127794
16.0047,127773
16.012,132137
16.0194,132098
16.0268,136149
16.0342,141191
16.0416,138223
16.0489,143117
16.0563,189772
16.0637,281544
16.0711,231283
16.0784,170209
16.0858,151941
16.0932,146860
16.1006,144247
16.1079,142303
16.1153,138405
16.1227,134958
16.1301,130304
16.1375,128866
16.1448,128212
16.1522,125513
16.1596,120871
16.167,113576
16.1743,112620
16.1817,111518
16.1891,108984
16.1965,108709
16.2038,104837
16.2112,105253
16.2186,106777
16.226,105153
16.2334,100522
16.2407,101425
16.2481,100567
16.2555,99183
16.2629,98250
16.2702,98109
16.2776,96414
16.285,95783
16.2923,97387
16.2997,97030
16.3071,94500
16.3145,97099
16.3219,97551
16.3292,96252
16.3366,96191
16.344,94962
16.3514,94683
16.3587,93668
16.3661,92778
16.3735,93630
16.3809,93347
16.3882,92456
16.3956,90617
16.403,91810
16.4104,92096
16.4178,89353
16.4251,91197
16.4325,92549
16.4399,93769
16.4473,94616
16.4546,94369
16.462,92346
16.4694,91110
16.4768,90256
16.4841,90138
16.4915,91471
16.4989,102968
16.5063,109518
16.5136,103650
16.521,94569
16.5284,93010
16.5358,94063
16.5432,96883
16.5505,95964
16.5579,94216
16.5653,91838
16.5726,90207
16.58,91678
16.5874,91059
16.5948,92378
16.6022,92461
16.6095,95290
16.6169,93641
16.6243,91212
16.6317,89107
16.6391,89563
16.6464,89446
16.6538,89647
16.6612,89350
16.6686,89428
16.6759,90100
16.6833,91837
16.6907,89457
16.698,90602
16.7054,92442
16.7128,93078
16.7202,92716
16.7276,93824
16.7349,93171
16.7423,91351
16.7497,90430
16.7571,90031
16.7645,89274
16.7718,87623
16.7792,87807
16.7866,87861
16.7939,89512
16.8013,87397
16.8087,88453
16.8161,87409
16.8235,87306
16.8308,87358
16.8382,86839
16.8456,85499
16.853,87180
16.8603,87270
16.8677,87289
16.8751,87560
16.8825,87542
16.8898,88765
16.8972,89364
16.9046,87244
16.912,87291
16.9194,88199
16.9267,85875
16.9341,87403
16.9415,87326
16.9489,86594
16.9562,86900
16.9636,88735
16.971,88832
16.9783,92610
16.9857,91976
16.9931,91122
17.0005,88647
17.0079,89274
17.0152,90302
17.0226,89414
17.03,88254
17.0374,88965
17.0448,88340
17.0521,86927
17.0595,88249
17.0669,86952
17.0742,88297
17.0816,87631
17.089,87393
17.0964,87206
17.1038,89074
17.1111,86880
17.1185,86416
17.1259,87330
17.1333,88091
17.1406,86633
17.148,85945
17.1554,86472
17.1628,86311
17.1702,85859
17.1775,84584
17.1849,85876
17.1923,84391
17.1996,86495
17.207,85615
17.2144,85199
17.2218,85908
17.2292,86486
17.2365,85905
17.2439,90947
17.2513,91843
17.2587,96717
17.266,100205
17.2734,100386
17.2808,102781
17.2882,105410
17.2955,105567
17.3029,107600
17.3103,107818
17.3177,109015
17.3251,106632
17.3324,104356
17.3398,103579
17.3472,100993
17.3546,100212
17.3619,97009
17.3693,97832
17.3767,95124
17.384,93418
17.3914,92578
17.3988,92573
17.4062,90851
17.4136,92240
17.4209,91763
17.4283,89937
17.4357,90186
17.4431,88909
17.4505,88790
17.4578,89737
17.4652,89600
17.4726,88863
17.48,88342
17.4873,88944
