D:\Data GC-MS\2018\STD 2018\HPD\SOLER HASSAKA LQ ENERZOL.D 21 Aug 18  10:19 am
Start of data points
1.29393,6270449
1.30067,6837336
1.30742,7062400
1.31415,7093774
1.3209,6998070
1.32763,6755845
1.33438,6467085
1.34113,6153517
1.34787,5797444
1.35462,5447951
1.36135,5139742
1.3681,4850473
1.37483,4576651
1.38158,4356935
1.38833,4161183
1.39507,3973823
1.40182,3800368
1.40855,3639909
1.4153,3459676
1.42203,3284554
1.42878,3112428
1.43552,2956377
1.44227,2793133
1.44902,2648012
1.45575,2497922
1.4625,2353146
1.46923,2211971
1.47598,2086644
1.48272,1957166
1.48947,1845173
1.51033,5746446
1.5177,5335942
1.52508,4976724
1.53245,4615912
1.53983,4254401
1.54722,3964644
1.55458,3648428
1.56197,3386806
1.56933,3132899
1.57672,2879359
1.5841,2664854
1.59147,2458224
1.59885,2263131
1.60622,2093964
1.6136,1923237
1.62097,1767470
1.62835,1625811
1.63573,1488632
1.6431,1363336
1.65048,1266243
1.65785,1152412
1.66523,1063181
1.67262,972428
1.67998,901296
1.68737,827606
1.69473,760581
1.70212,701583
1.70948,642048
1.71687,590966
1.72425,543611
1.73162,498830
1.739,457203
1.74637,423504
1.75375,391996
1.76113,357464
1.7685,332355
1.77588,306645
1.78325,282429
1.79063,258402
1.798,241402
1.80538,222633
1.81277,209430
1.82013,188863
1.82752,180572
1.83488,164454
1.84227,154345
1.84965,144424
1.85702,134930
1.8644,127620
1.87177,116369
1.87915,108621
1.88652,102813
1.8939,97789
1.90128,88672
1.90865,83695
1.91603,79608
1.9234,72969
1.93078,69559
1.93817,68158
1.94553,64106
1.95292,64031
1.96028,64200
1.96767,63131
1.97503,61458
1.98242,59947
1.9898,60424
1.99717,58909
2.00455,56192
2.01192,54516
2.0193,52423
2.02667,49864
2.03405,47249
2.04143,45316
2.0488,42671
2.05618,41564
2.06355,38311
2.07093,38638
2.07832,36306
2.08568,33979
2.09307,33577
2.10043,32546
2.10782,32710
2.11518,30747
2.12257,30184
2.12995,28531
2.13732,28199
2.1447,28748
2.15207,29803
2.15945,28703
2.16683,28040
2.1742,28156
2.18158,28455
2.18895,27364
2.19633,26814
2.2037,27111
2.21108,27252
2.21847,25704
2.22583,27104
2.23322,26546
2.24058,24712
2.24797,24976
2.25535,25349
2.26272,24535
2.2701,25340
2.27747,24418
2.28485,25690
2.29222,24707
2.2996,23836
2.30698,23866
2.31435,23926
2.32173,23932
2.3291,23522
2.33648,24210
2.34387,23409
2.35123,23582
2.35862,24547
2.36598,25648
2.37337,25033
2.38073,24832
2.38812,25596
2.3955,25688
2.40287,26088
2.41025,27704
2.41762,27791
2.425,31526
2.43238,34730
2.43975,38549
2.44713,41245
2.4545,42857
2.46188,42221
2.46925,41787
2.47663,39200
2.48402,37163
2.49138,37462
2.49877,36775
2.50613,38280
2.51352,40962
2.5209,42498
2.52827,43922
2.53565,42569
2.54302,39640
2.5504,37571
2.55777,35654
2.56515,31653
2.57253,31584
2.5799,30250
2.58728,30125
2.59465,31060
2.60203,31855
2.6094,32000
2.61678,33266
2.62417,31839
2.63153,33267
2.63892,35956
2.64628,38427
2.65367,41852
2.66105,43514
2.66842,42345
2.6758,40075
2.68317,38357
2.69055,36498
2.69792,33594
2.7053,31986
2.71268,33485
2.72005,39335
2.72743,52942
2.7348,62551
2.74218,67196
2.74957,65509
2.75693,58772
2.76432,54745
2.77168,49763
2.77907,45285
2.78643,41187
2.79382,36928
2.8012,33924
2.80857,32886
2.81595,30653
2.82332,27909
2.8307,26873
2.83808,26985
2.84545,25340
2.85283,25590
2.8602,24289
2.86758,25880
2.87495,25391
2.88233,24550
2.88972,26488
2.89708,25288
2.90447,25084
2.91183,23883
2.91922,25345
2.9266,24068
2.93397,24093
2.94135,25227
2.94872,25139
2.9561,25873
2.96347,32013
2.97085,45959
2.97823,58665
2.9856,66511
2.99298,64125
3.00035,61316
3.00773,56303
3.01512,46886
3.02248,42693
3.02987,39593
3.03723,39292
3.04462,37276
3.05198,34531
3.05937,36002
3.06675,32552
3.07412,34323
3.0815,33433
3.08887,34078
3.09625,32558
3.10363,32556
3.111,31041
3.11838,28688
3.12575,27033
3.13313,29419
3.1405,29209
3.14788,30411
3.15527,31067
3.16263,30779
3.17002,31118
3.17738,28390
3.18477,26718
3.19213,26861
3.19952,26742
3.2069,27052
3.21427,25253
3.22165,25854
3.22902,28793
3.2364,29098
3.24378,29317
3.25115,28702
3.25853,26629
3.2659,27352
3.27328,25743
3.28065,24160
3.28803,25862
3.29542,25686
3.30278,24370
3.31017,24714
3.31753,25570
3.32492,24436
3.3323,24634
3.33967,23373
3.34705,26331
3.35442,27480
3.3618,29388
3.36917,30307
3.37655,31110
3.38393,29368
3.3913,31726
3.39868,36638
3.40605,50525
3.41343,61491
3.42082,64253
3.42818,62622
3.43557,62654
3.44293,61032
3.45032,64921
3.45768,63953
3.46507,60862
3.47245,53146
3.47982,49441
3.4872,47248
3.49457,54463
3.50195,60771
3.50933,62786
3.5167,60269
3.52408,51456
3.53145,45766
3.53883,39076
3.5462,35066
3.55358,34202
3.56097,42087
3.56833,49252
3.57572,55846
3.58308,57111
3.59047,52874
3.59785,50411
3.60522,45821
3.6126,39380
3.61997,35299
3.62735,31918
3.63472,30960
3.6421,29050
3.64948,28424
3.65685,29289
3.66423,31128
3.6716,33883
3.67898,35869
3.68637,35972
3.69373,35897
3.70112,38329
3.70848,43893
3.71587,47155
3.72323,48631
3.73062,45293
3.738,39813
3.74537,38455
3.75275,33497
3.76012,30835
3.7675,29845
3.77487,30398
3.78225,47115
3.78963,105044
3.797,197335
3.80438,253078
3.81175,230524
3.81913,180160
3.82652,136666
3.83388,101012
3.84127,73453
3.84863,55749
3.85602,43571
3.86338,37138
3.87077,38449
3.87815,40754
3.88552,42674
3.8929,40381
3.90027,36806
3.90765,33804
3.91503,31185
3.9224,32107
3.92978,30818
3.93715,29699
3.94453,28975
3.9519,29019
3.95928,29643
3.96667,28852
3.97403,30946
3.98142,30212
3.98878,30228
3.99617,30543
4.00355,30785
4.01092,31850
4.0183,31411
4.02567,29982
4.03305,29707
4.04042,29758
4.0478,36163
4.05518,44386
4.06255,56734
4.06993,54302
4.0773,50296
4.08468,44657
4.09207,41611
4.09943,37154
4.10682,35474
4.11418,40525
4.12157,56336
4.12893,96165
4.13632,132987
4.1437,131033
4.15107,106478
4.15845,81333
4.16582,68937
4.1732,61768
4.18058,68104
4.18795,81169
4.19533,90503
4.2027,114859
4.21008,177699
4.21745,242225
4.22483,247725
4.23222,205668
4.23958,164533
4.24697,176238
4.25433,209379
4.26172,217957
4.2691,179983
4.27647,148001
4.28385,119143
4.29122,103940
4.2986,90500
4.30597,85793
4.31335,83092
4.32073,83377
4.3281,73401
4.33548,57904
4.34285,52165
4.35023,52183
4.3576,61868
4.36498,70105
4.37237,74598
4.37973,83667
4.38712,99571
4.39448,97782
4.40187,85296
4.40925,69223
4.41662,80700
4.424,136506
4.43137,195686
4.43875,184822
4.44612,147518
4.4535,145770
4.46088,242145
4.46825,334520
4.47563,321097
4.483,235754
4.49038,169473
4.49777,143537
4.50513,133303
4.51252,133608
4.51988,123054
4.52727,104561
4.53463,108464
4.54202,279776
4.5494,726577
4.55677,1229363
4.56415,1345236
4.57152,1016774
4.5789,612421
4.58628,350856
4.59365,193133
4.60103,108449
4.6084,72257
4.61578,70520
4.62315,122205
4.63053,387375
4.63792,1097989
4.64528,1822314
4.65267,1801908
4.66003,1280304
4.66742,733042
4.6748,416254
4.68217,236479
4.68955,152054
4.69692,126682
4.7043,145898
4.71167,178594
4.71905,196282
4.72643,194526
4.7338,160913
4.74118,119691
4.74855,94657
4.75593,100965
4.76332,124101
4.77068,127302
4.77807,100505
4.78543,97423
4.79282,142002
4.80018,214626
4.80757,264939
4.81495,403090
4.82232,624203
4.8297,720332
4.83707,657052
4.84445,596985
4.85183,730025
4.8592,914854
4.86658,809925
4.87395,705999
4.88133,697613
4.8887,638038
4.89608,473624
4.90347,368341
4.91083,331156
4.91822,434600
4.92558,725843
4.93297,934084
4.94035,770711
4.94772,492673
4.9551,433462
4.96247,1785240
4.96985,6359468
4.97722,11709357
4.9846,12944255
4.99198,8231559
4.99935,3133805
5.00673,1114976
5.0141,464316
5.02148,211476
5.02885,102992
5.03623,72086
5.04362,85742
5.05098,166613
5.05837,295467
5.06573,400421
5.07312,449391
5.0805,562348
5.08787,883064
5.09525,1030271
5.10262,790365
5.11,509714
5.11737,461901
5.12475,530139
5.13213,524815
5.1395,432146
5.14688,279511
5.15425,227595
5.16163,352728
5.16902,545935
5.17638,780517
5.18377,1195007
5.19113,1329128
5.19852,1055982
5.20588,628122
5.21327,380835
5.22065,344576
5.22802,377920
5.2354,501513
5.24277,945631
5.25015,1604370
5.25753,2011048
5.2649,2186153
5.27228,2294411
5.27965,2027817
5.28703,1364674
5.2944,847420
5.30178,749385
5.30917,897271
5.31653,1152523
5.32392,1290266
5.33128,1228466
5.33867,1142783
5.34605,1141158
5.35342,1655198
5.3608,2992455
5.36817,5010690
5.37555,7474675
5.38292,7552142
5.3903,5197579
5.39768,3756236
5.40505,3295198
5.41243,2525920
5.4198,1690191
5.42718,1190205
5.43457,991754
5.44193,1223291
5.44932,1618023
5.45668,2170574
5.46407,3804332
5.47143,5936232
5.47882,5287079
5.4862,3091691
5.49357,1982107
5.50095,1789429
5.50832,1511486
5.5157,1111948
5.52308,1035830
5.53045,1047056
5.53783,1038443
5.5452,916327
5.55258,638656
5.55995,585959
5.56733,710072
5.57472,735043
5.58208,653681
5.58947,544537
5.59683,413818
5.60422,507404
5.61158,1327542
5.61897,2745993
5.62635,3684965
5.63372,3634420
5.6411,3213664
5.64847,2785041
5.65585,1805185
5.66323,1022076
5.6706,1723132
5.67798,4126427
5.68535,5986088
5.69273,7250682
5.7001,9503814
5.70748,10128387
5.71487,6604648
5.72223,6319051
5.72962,12608831
5.73698,16768891
5.74437,13047624
5.75175,8863444
5.75912,7014313
5.7665,4987572
5.77387,3172066
5.78125,1889758
5.78862,1204218
5.796,2091449
5.80338,6392748
5.81075,12763618
5.81813,12632981
5.8255,6392539
5.83288,2063912
5.84027,845698
5.84763,1003530
5.85502,1530542
5.86238,2311237
5.86977,2968154
5.87713,2712702
5.88452,1925805
5.8919,1677789
5.89927,1685949
5.90665,1552731
5.91402,1159964
5.9214,863895
5.92878,753731
5.93615,969369
5.94353,2816829
5.9509,7149816
5.95828,8848854
5.96565,5847218
5.97303,3899144
5.98042,4866331
5.98778,5598139
5.99517,4838716
6.00253,3680646
6.00992,3709107
6.0173,3719672
6.02467,3297329
6.03205,2460377
6.03942,1707529
6.0468,1523461
6.05417,1810745
6.06155,1809470
6.06893,1445210
6.0763,1180282
6.08368,891723
6.09105,1111845
6.09843,4002119
6.10582,11569621
6.11318,17941280
6.12057,16199017
6.12793,14591562
6.13532,20559014
6.14268,29683580
6.15007,36598424
6.15745,33003602
6.16482,5251753
6.1722,1186191
6.17957,1433467
6.18695,1585331
6.19432,1416371
6.2017,987984
6.20908,680411
6.21645,547149
6.22383,518889
6.2312,864226
6.23858,1392277
6.24597,1572486
6.25333,1124784
6.26072,1023953
6.26808,1620070
6.27547,2032939
6.28283,2303334
6.29022,3429675
6.2976,4277610
6.30497,3740325
6.31235,2922711
6.31972,2320479
6.3271,2213106
6.33448,2396790
6.34185,2549355
6.34923,2617780
6.3566,3337434
6.36398,3559339
6.37135,3186559
6.37873,3700706
6.38612,7768316
6.39348,12105230
6.40087,8601778
6.40823,2914403
6.41562,2168392
6.423,3472627
6.43037,3512574
6.43775,4319949
6.44512,9084194
6.4525,11916088
6.45987,8654118
6.46725,4864516
6.47463,2753646
6.482,1641579
6.48938,1199009
6.49675,1520331
6.50413,2070942
6.51152,2500018
6.51888,3507894
6.52627,5142415
6.53363,6085991
6.54102,5031431
6.54838,2919534
6.55577,3109244
6.56315,5396785
6.57052,7010205
6.5779,5652035
6.58527,2984451
6.59265,2123866
6.60003,2232808
6.6074,3037992
6.61478,3088318
6.62215,2046428
6.62953,1287606
6.6369,1097967
6.64428,1167947
6.65167,1257787
6.65903,1032465
6.66642,849857
6.67378,1301877
6.68117,2364521
6.68855,2937659
6.69592,2743354
6.7033,2243129
6.71067,2523492
6.71805,3164464
6.72542,4304914
6.7328,5575277
6.74018,5717709
6.74755,6957193
6.75493,6990296
6.7623,6133939
6.76968,7439129
6.77705,6734853
6.78443,4031624
6.79182,4612457
6.79918,8375861
6.80657,11639509
6.81393,9241733
6.82132,6322710
6.8287,7751528
6.83607,8610344
6.84345,10245845
6.85082,8876136
6.8582,3645905
6.86557,2629577
6.87295,4184911
6.88033,3928479
6.8877,2329322
6.89508,1516343
6.90245,1981446
6.90983,5393835
6.91722,10532722
6.92458,11565576
6.93197,9283469
6.93933,6142714
6.94672,2651537
6.95408,1652388
6.96147,1325881
6.96885,1095333
6.97622,1016025
6.9836,1055388
6.99097,1398118
6.99835,1544034
7.00573,1280485
7.0131,1338770
7.02048,1804510
7.02785,3182485
7.03523,6156422
7.0426,7131679
7.04998,6226852
7.05737,8023672
7.06473,8041385
7.07212,4214573
7.07948,2421785
7.08687,2008577
7.09425,3318576
7.10162,4812391
7.109,3574603
7.11637,2722412
7.12375,5560204
7.13112,7384449
7.1385,5460791
7.14588,3512620
7.15325,2728173
7.16063,3438048
7.168,4142022
7.17538,3056834
7.18277,1730669
7.19013,1276940
7.19752,1468390
7.20488,2404172
7.21227,4541863
7.21963,10143800
7.22702,18798350
7.2344,27275410
7.24177,32304186
7.24915,14777434
7.25652,2702265
7.2639,2501123
7.27128,2327763
7.27865,2090736
7.28603,2029910
7.2934,2214523
7.30078,2231689
7.30815,2202389
7.31553,2891857
7.32292,3875089
7.33028,3459538
7.33767,2347487
7.34503,2082508
7.35242,2779126
7.35978,4167801
7.36717,4585522
7.37455,3399194
7.38192,2875269
7.3893,3078624
7.39667,3316068
7.40405,3742138
7.41143,4081852
7.4188,2823574
7.42618,2206638
7.43355,3343500
7.44093,3743208
7.4483,3140182
7.45568,3346370
7.46307,4697085
7.47043,4451371
7.47782,2606404
7.48518,1174842
7.49257,1117459
7.49995,2280344
7.50732,5740674
7.5147,8210212
7.52207,5150971
7.52945,1811972
7.53682,1146633
7.5442,947990
7.55158,802312
7.55895,936808
7.56633,1459766
7.5737,1888654
7.58108,2277771
7.58847,2300801
7.59583,2131951
7.60322,2037178
7.61058,2760202
7.61797,3548817
7.62533,2775602
7.63272,2805002
7.6401,3526977
7.64747,2843166
7.65485,2443450
7.66222,3492638
7.6696,4246569
7.67698,3032619
7.68435,1894482
7.69173,1821890
7.6991,1761677
7.70648,1667937
7.71385,1964287
7.72123,2997652
7.72862,3261602
7.73598,3124818
7.74337,3570498
7.75073,2967180
7.75812,2921895
7.7655,3386236
7.77287,2809803
7.78025,2735207
7.78762,3698810
7.795,3987135
7.80237,4048282
7.80975,3103493
7.81713,2567586
7.8245,3249068
7.83188,3941077
7.83925,6521261
7.84663,7695404
7.85402,6592207
7.86138,4496881
7.86877,3574686
7.87613,5721576
7.88352,7491678
7.89088,5495231
7.89827,2519064
7.90565,2773624
7.91302,3636957
7.9204,2717853
7.92777,1661694
7.93515,1799543
7.94252,2241439
7.9499,4070523
7.95728,6295703
7.96465,6114580
7.97203,4757093
7.9794,3978577
7.98678,3282369
7.99417,2706413
8.00153,2825639
8.00892,2606563
8.01628,2061180
8.02367,1692598
8.03103,1531717
8.03842,1423796
8.0458,1484925
8.05317,1826196
8.06055,2376194
8.06792,2116470
8.0753,1363880
8.08268,1007743
8.09005,1009906
8.09743,1126165
8.1048,1304833
8.11218,1762637
8.11955,1964843
8.12693,1956224
8.13432,2134011
8.14168,2866909
8.14907,4095490
8.15643,4481505
8.16382,3523482
8.1712,2727382
8.17857,2129058
8.18595,1986751
8.19332,2426218
8.2007,3447603
8.20807,5374573
8.21545,5629260
8.22283,4054131
8.2302,4061104
8.23758,7019142
8.24495,13678385
8.25233,20720838
8.25972,20011742
8.26708,5566923
8.27447,2794273
8.28183,2758433
8.28922,2980190
8.29658,3129035
8.30397,2817329
8.31135,2535886
8.31872,3130809
8.3261,3692295
8.33347,2898157
8.34085,1924011
8.34823,1888442
8.3556,2423345
8.36298,2781504
8.37035,2939268
8.37773,4673908
8.3851,7090477
8.39248,6142424
8.39987,3180386
8.40723,2136647
8.41462,2182748
8.42198,2529280
8.42937,2475589
8.43675,2323775
8.44412,2116353
8.4515,1807346
8.45887,2209158
8.46625,3213188
8.47362,3081239
8.481,2277099
8.48838,1695367
8.49575,1353649
8.50313,1780958
8.5105,3509864
8.51788,4332127
8.52525,3266915
8.53263,2440952
8.54002,2225944
8.54738,2433323
8.55477,3121990
8.56213,3740986
8.56952,3071323
8.5769,2477986
8.58427,2690659
8.59165,2615809
8.59902,2672934
8.6064,3250631
8.61377,3641049
8.62115,2998825
8.62853,1986884
8.6359,1606123
8.64328,1733078
8.65065,2028102
8.65803,2245445
8.66542,3008552
8.67278,4231111
8.68017,5518085
8.68753,5302954
8.69492,4731093
8.70228,4306668
8.70967,3330129
8.71705,2812857
8.72442,2435526
8.7318,2291377
8.73917,2359483
8.74655,2791322
8.75393,3982596
8.7613,4066381
8.76868,4053785
8.77605,5436343
8.78343,5105485
8.7908,3443031
8.79818,2832419
8.80557,3164228
8.81293,3828856
8.82032,4854345
8.82768,5324364
8.83507,5232205
8.84245,4793239
8.84982,3533406
8.8572,3957701
8.86457,6286032
8.87195,6361768
8.87932,4405494
8.8867,4074267
8.89408,3467459
8.90145,2313874
8.90883,2021491
8.9162,2660899
8.92358,3916368
8.93097,5582200
8.93833,6232744
8.94572,6880909
8.95308,10298213
8.96047,10153735
8.96783,5704460
8.97522,4663243
8.9826,4201479
8.98997,4219998
8.99735,7173840
9.00472,8981447
9.0121,6582228
9.01948,3917440
9.02685,2948285
9.03423,2963805
9.0416,2909674
9.04898,2743795
9.05635,3307156
9.06373,3816473
9.07112,3264457
9.07848,2466276
9.08587,2421121
9.09323,3427621
9.10062,4466533
9.10798,4289527
9.11537,4028845
9.12275,4238663
9.13012,4367975
9.1375,4368424
9.14487,4572304
9.15225,4837410
9.15963,5347362
9.167,4862038
9.17438,4022308
9.18175,4449018
9.18913,5349837
9.1965,7036985
9.20388,11579182
9.21127,19590016
9.21863,27097750
9.22602,25242042
9.23338,7558759
9.24077,4487168
9.24815,4301499
9.25552,5330145
9.2629,6865409
9.27027,8195621
9.27765,8698480
9.28502,7869438
9.2924,9186747
9.29978,11821550
9.30715,9361259
9.31453,6185876
9.3219,4876914
9.32928,3906213
9.33667,4082937
9.34403,4660901
9.35142,5198227
9.35878,5625657
9.36617,5397521
9.37353,6154487
9.38092,7310243
9.3883,5944095
9.39567,3593540
9.40305,3197819
9.41042,3459343
9.4178,3557200
9.42518,3615101
9.43255,3523311
9.43993,2926215
9.4473,2859172
9.45468,4803200
9.46205,8461047
9.46943,9342214
9.47682,6896374
9.48418,5343861
9.49157,7002904
9.49893,10560796
9.50632,11866460
9.5137,8846891
9.52107,6526583
9.52845,6174777
9.53582,6650231
9.5432,6533545
9.55057,5263096
9.55795,4494539
9.56533,5225383
9.5727,6520687
9.58008,7079819
9.58745,6683451
9.59483,5458269
9.60222,4512641
9.60958,4308034
9.61697,4337186
9.62433,3962430
9.63172,3745330
9.63908,4441754
9.64647,5545771
9.65385,6968931
9.66122,10419897
9.6686,12737217
9.67597,10315900
9.68335,6595825
9.69072,5918661
9.6981,7279244
9.70548,7334448
9.71285,6068773
9.72023,6449764
9.7276,7425811
9.73498,7507024
9.74237,9887714
9.74973,12246995
9.75712,10109124
9.76448,6737924
9.77187,4916235
9.77923,5259064
9.78662,8565480
9.794,11584038
9.80137,8915648
9.80875,6070810
9.81612,5563394
9.8235,5116379
9.83088,4529628
9.83825,4954214
9.84563,7392924
9.853,11298269
9.86038,12896862
9.86775,10895680
9.87513,9251188
9.88252,7151164
9.88988,5692611
9.89727,6001961
9.90463,9589419
9.91202,15811314
9.9194,16879430
9.92677,9455883
9.93415,5227773
9.94152,5185644
9.9489,4998612
9.95627,4427185
9.96365,4861383
9.97103,5322676
9.9784,4935313
9.98578,4587241
9.99315,4900945
10.0005,5437938
10.0079,5887739
10.0153,6306142
10.0227,6488200
10.03,6031030
10.0374,5714736
10.0448,5925675
10.0522,6114997
10.0596,6203218
10.0669,6303069
10.0743,6798185
10.0817,7387352
10.0891,7504926
10.0964,7794614
10.1038,9381435
10.1112,14179992
10.1186,22305356
10.1259,29336826
10.1333,35156976
10.1407,32347974
10.1481,9900557
10.1554,8892657
10.1628,9837441
10.1702,8036718
10.1776,8943996
10.185,11384302
10.1923,11520226
10.1997,11565500
10.2071,12362738
10.2145,10550598
10.2218,8053455
10.2292,6729831
10.2366,6913482
10.244,7690331
10.2513,8144640
10.2587,8197928
10.2661,6445343
10.2735,5416983
10.2808,5471641
10.2882,6254409
10.2956,8524151
10.303,12115126
10.3103,13085811
10.3177,9770374
10.3251,6727039
10.3325,6483866
10.3399,7194509
10.3472,7123010
10.3546,6746857
10.362,6196016
10.3694,5668898
10.3767,5647078
10.3841,6088767
10.3915,6359540
10.3989,6760883
10.4062,7471650
10.4136,7996523
10.421,7829774
10.4284,8454803
10.4357,12151692
10.4431,14971041
10.4505,12484388
10.4579,9019891
10.4653,9909888
10.4726,12960412
10.48,13047014
10.4874,9334491
10.4948,8383181
10.5021,9853661
10.5095,10033359
10.5169,9056125
10.5243,9438465
10.5316,10343312
10.539,10961180
10.5464,10671903
10.5538,8329215
10.5611,6964041
10.5685,8871226
10.5759,12024087
10.5833,13372335
10.5907,12514606
10.598,10191489
10.6054,8598661
10.6128,10337638
10.6202,13040647
10.6275,11498905
10.6349,8178327
10.6423,9947256
10.6497,16461972
10.657,23306310
10.6644,25015352
10.6718,18201820
10.6792,9931164
10.6865,7861335
10.6939,6555264
10.7013,6043241
10.7087,6039642
10.716,7263266
10.7234,11085269
10.7308,12116830
10.7382,8387610
10.7456,7078447
10.7529,8351228
10.7603,9177718
10.7677,8082881
10.7751,6613672
10.7824,5843201
10.7898,5670395
10.7972,5515174
10.8046,6902169
10.8119,8996349
10.8193,9349752
10.8267,7528381
10.8341,6132395
10.8414,5946250
10.8488,7458604
10.8562,8715393
10.8636,7752626
10.871,6304849
10.8783,5378829
10.8857,5291214
10.8931,5582228
10.9005,6671739
10.9078,8253721
10.9152,8131453
10.9226,6836363
10.93,6216598
10.9373,6211681
10.9447,6728778
10.9521,8661684
10.9595,13617803
10.9668,20022816
10.9742,27143770
10.9816,33797876
10.989,37213724
10.9964,22704928
11.0037,7839695
11.0111,7573824
11.0185,8380957
11.0259,8327341
11.0332,8242240
11.0406,8811913
11.048,9518797
11.0554,8521759
11.0627,7593050
11.0701,7006602
11.0775,7432594
11.0849,8316626
11.0922,8509878
11.0996,8219206
11.107,6892399
11.1144,6158934
11.1217,6075134
11.1291,6092732
11.1365,6331273
11.1439,7343429
11.1513,9158200
11.1586,9871861
11.166,7396969
11.1734,6093065
11.1808,6204396
11.1881,6426753
11.1955,6777299
11.2029,7828012
11.2103,7261574
11.2176,5796810
11.225,5417911
11.2324,5386894
11.2398,5602065
11.2471,6433069
11.2545,6630695
11.2619,5899953
11.2693,5320945
11.2767,4702326
11.284,4654674
11.2914,5061391
11.2988,5522542
11.3062,6187602
11.3135,6381200
11.3209,6253815
11.3283,7512639
11.3357,10505370
11.343,11520306
11.3504,10664308
11.3578,9390431
11.3652,9277959
11.3725,8906955
11.3799,10138879
11.3873,11158089
11.3947,9784666
11.4021,8008000
11.4094,7872345
11.4168,7843617
11.4242,6944236
11.4316,8562119
11.4389,11780259
11.4463,11920526
11.4537,8917443
11.4611,5897312
11.4684,5714447
11.4758,8303023
11.4832,11794406
11.4906,11359765
11.4979,9206894
11.5053,9842245
11.5127,10417843
11.5201,9390190
11.5274,7982031
11.5348,9169632
11.5422,11802715
11.5496,10330057
11.557,6385838
11.5643,5385522
11.5717,5857068
11.5791,6220207
11.5865,6278904
11.5938,6282019
11.6012,6186784
11.6086,6144583
11.616,5852322
11.6233,5699108
11.6307,5583857
11.6381,5659259
11.6455,6410659
11.6528,7159727
11.6602,7123108
11.6676,6432210
11.675,6166260
11.6824,5845917
11.6897,5335869
11.6971,5501624
11.7045,6469117
11.7119,6888285
11.7192,6127198
11.7266,5185505
11.734,5203309
11.7414,5276887
11.7487,5138946
11.7561,6644277
11.7635,10688211
11.7709,17608630
11.7782,24822958
11.7856,31309312
11.793,29987566
11.8004,9824730
11.8078,6392035
11.8151,6718575
11.8225,7626919
11.8299,8224572
11.8373,7752234
11.8446,7242539
11.852,6582218
11.8594,6675975
11.8668,6691736
11.8741,6117388
11.8815,5674806
11.8889,5839136
11.8963,5668336
11.9036,5437265
11.911,6135871
11.9184,6964423
11.9258,6612972
11.9332,6404281
11.9405,6968879
11.9479,7072287
11.9553,5973205
11.9627,5644170
11.97,5933614
11.9774,6023699
11.9848,5825577
11.9922,5968810
11.9995,6081360
12.0069,5668806
12.0143,4940122
12.0217,4848393
12.029,4887696
12.0364,5309741
12.0438,5581716
12.0512,5390633
12.0585,5142825
12.0659,4881348
12.0733,4429884
12.0807,4396659
12.0881,4805645
12.0954,5159091
12.1028,5379355
12.1102,6062175
12.1176,7610154
12.1249,8557050
12.1323,8260235
12.1397,9124774
12.1471,12363149
12.1544,15169509
12.1618,13045487
12.1692,8420751
12.1766,6806017
12.1839,5378686
12.1913,5052789
12.1987,5015654
12.2061,5466201
12.2135,6527021
12.2208,6942811
12.2282,5856214
12.2356,5388174
12.243,6247729
12.2503,8271483
12.2577,10658884
12.2651,9970494
12.2725,6398119
12.2798,4818346
12.2872,4842042
12.2946,5332728
12.302,5828994
12.3093,6422911
12.3167,7557192
12.3241,7085764
12.3315,5144459
12.3389,4565506
12.3462,4592516
12.3536,4535735
12.361,4454701
12.3684,4473371
12.3757,4591968
12.3831,4494126
12.3905,4174267
12.3979,4152999
12.4052,4760618
12.4126,5384822
12.42,5199391
12.4274,4749645
12.4347,4769228
12.4421,5014946
12.4495,5194979
12.4569,5105461
12.4642,4765421
12.4716,4513156
12.479,4460826
12.4864,4685521
12.4938,4693370
12.5011,4516323
12.5085,4717497
12.5159,5419489
12.5233,8470685
12.5306,14364291
12.538,21121622
12.5454,26638082
12.5528,21137088
12.5601,6446972
12.5675,5707969
12.5749,9648897
12.5823,16453028
12.5896,21209752
12.597,15665590
12.6044,7804407
12.6118,6376413
12.6192,6013799
12.6265,5574049
12.6339,5371643
12.6413,5157513
12.6487,4909141
12.656,4494093
12.6634,4178955
12.6708,4184604
12.6782,4408049
12.6855,4504912
12.6929,4603428
12.7003,4740490
12.7077,4893418
12.715,4848965
12.7224,4609831
12.7298,4533853
12.7372,4472549
12.7446,4541779
12.7519,4397886
12.7593,4161629
12.7667,4048703
12.7741,4331379
12.7814,4998099
12.7888,5438859
12.7962,5149365
12.8036,4379697
12.8109,4006454
12.8183,3977868
12.8257,3799015
12.8331,3974299
12.8404,4706230
12.8478,6055224
12.8552,6890207
12.8626,7113769
12.8699,6220161
12.8773,5630655
12.8847,5012836
12.8921,4353842
12.8995,4562946
12.9068,5291510
12.9142,5588862
12.9216,5562873
12.929,4922562
12.9363,4283394
12.9437,4351220
12.9511,5468717
12.9585,5689197
12.9658,4553866
12.9732,3841019
12.9806,4399174
12.988,5938385
12.9953,7326553
13.0027,6511570
13.0101,4865665
13.0175,4322499
13.0249,4896328
13.0322,5523377
13.0396,5027003
13.047,5438363
13.0544,6060842
13.0617,5250925
13.0691,3997979
13.0765,3573157
13.0839,3588470
13.0912,3836898
13.0986,3881695
13.106,3682626
13.1134,3736946
13.1207,4008840
13.1281,4213449
13.1355,4100608
13.1429,3953242
13.1503,3710412
13.1576,3742244
13.165,4134110
13.1724,4599678
13.1798,4420926
13.1871,3982690
13.1945,3872602
13.2019,3820482
13.2093,3996408
13.2166,3972026
13.224,3823931
13.2314,3793716
13.2388,4345569
13.2461,6920916
13.2535,12793378
13.2609,19539280
13.2683,21780416
13.2757,10010585
13.283,4017744
13.2904,3922398
13.2978,3934763
13.3052,4066589
13.3125,4622515
13.3199,6488385
13.3273,10858988
13.3347,14384620
13.342,12233239
13.3494,6893552
13.3568,4775247
13.3642,3974624
13.3715,3581814
13.3789,3538086
13.3863,3380315
13.3937,3381514
13.401,3493160
13.4084,3491883
13.4158,3367556
13.4232,3400517
13.4306,3281195
13.4379,3241404
13.4453,3350301
13.4527,3510499
13.4601,3771814
13.4674,3525348
13.4748,3244081
13.4822,3083181
13.4896,3246824
13.4969,3737167
13.5043,4040536
13.5117,3933943
13.5191,3517535
13.5264,3242645
13.5338,3388649
13.5412,3983834
13.5486,4708783
13.556,4581407
13.5633,4438016
13.5707,4291368
13.5781,4275659
13.5855,3977765
13.5928,3366094
13.6002,3318018
13.6076,3742752
13.615,3755322
13.6223,3410958
13.6297,3284753
13.6371,3352465
13.6445,3323670
13.6518,3704411
13.6592,4133664
13.6666,3841420
13.674,3420373
13.6814,3364750
13.6887,4082605
13.6961,4489136
13.7035,3772930
13.7109,3223132
13.7182,3345231
13.7256,3625816
13.733,3442310
13.7404,3138746
13.7477,3921597
13.7551,5097279
13.7625,5020016
13.7699,3805665
13.7772,3220616
13.7846,2987078
13.792,2938800
13.7994,2894196
13.8067,3111537
13.8141,3212848
13.8215,3228829
13.8289,3304537
13.8363,3153502
13.8436,2929209
13.851,2974354
13.8584,3013000
13.8658,2935619
13.8731,2807551
13.8805,2998034
13.8879,3764456
13.8953,5063594
13.9026,5300694
13.91,4475388
13.9174,3437722
13.9248,3439901
13.9321,4982577
13.9395,8845867
13.9469,14946721
13.9543,16376501
13.9617,7989810
13.969,3353270
13.9764,3075234
13.9838,2930773
13.9912,2806847
13.9985,2875081
14.0059,3076839
14.0133,3257857
14.0207,3427415
14.028,3237643
14.0354,3153932
14.0428,3237718
14.0502,3293000
14.0575,3206796
14.0649,2892071
14.0723,2667094
14.0797,2788959
14.0871,2893850
14.0944,2827999
14.1018,2665915
14.1092,2568615
14.1166,2617066
14.1239,2767224
14.1313,2697025
14.1387,2679699
14.1461,2750847
14.1534,2799930
14.1608,2834150
14.1682,2844307
14.1756,2814260
14.1829,2932562
14.1903,3069678
14.1977,3104090
14.2051,3377884
14.2124,3696337
14.2198,3559799
14.2272,3380992
14.2346,3141258
14.242,3068706
14.2493,3122433
14.2567,2932588
14.2641,2736130
14.2715,2846288
14.2788,2945934
14.2862,2797919
14.2936,2402667
14.301,2374855
14.3083,2589212
14.3157,3155358
14.3231,3421718
14.3305,2970112
14.3378,2750974
14.3452,3106517
14.3526,3694379
14.36,3242494
14.3674,2595354
14.3747,2557328
14.3821,2614994
14.3895,2620094
14.3969,2906232
14.4042,3538664
14.4116,3511054
14.419,2800136
14.4264,2591067
14.4337,2978057
14.4411,3271938
14.4485,2870931
14.4559,2481556
14.4632,2450819
14.4706,2672301
14.478,2897123
14.4854,2887298
14.4928,2623364
14.5001,2461909
14.5075,2397904
14.5149,2408198
14.5223,2369425
14.5296,2391278
14.537,2362517
14.5444,2279195
14.5518,2367798
14.5591,3005822
14.5665,5483733
14.5739,10576381
14.5813,13246787
14.5886,6892139
14.596,2947214
14.6034,2456905
14.6108,2344495
14.6181,2390244
14.6255,2439300
14.6329,2373695
14.6403,2366988
14.6477,2470553
14.655,2555235
14.6624,2454368
14.6698,2398575
14.6772,2466504
14.6845,2601794
14.6919,2640930
14.6993,2442984
14.7067,2172016
14.714,2112238
14.7214,2113604
14.7288,2097101
14.7362,2042947
14.7435,1986343
14.7509,2056432
14.7583,2063862
14.7657,1999369
14.7731,2029109
14.7804,2172857
14.7878,2404183
14.7952,2789825
14.8026,3000649
14.8099,2751426
14.8173,2526131
14.8247,2553326
14.8321,2512373
14.8394,2491080
14.8468,2285211
14.8542,2118148
14.8616,2253463
14.8689,2336515
14.8763,2248348
14.8837,2157976
14.8911,2129206
14.8985,2302485
14.9058,2441569
14.9132,2364040
14.9206,2220240
14.928,2487278
14.9353,2577077
14.9427,2194202
14.9501,1969621
14.9575,1991287
14.9648,1930327
14.9722,2000717
14.9796,2464563
14.987,2881063
14.9943,2974817
15.0017,2859241
15.0091,2682934
15.0165,2462156
15.0239,2421003
15.0312,2681287
15.0386,2489376
15.046,2119679
15.0534,2021354
15.0607,2078022
15.0681,2083467
15.0755,1902701
15.0829,1802080
15.0902,1770545
15.0976,1816463
15.105,1834747
15.1124,2068176
15.1197,3959352
15.1271,8466748
15.1345,9323193
15.1419,4298021
15.1492,2066045
15.1566,1808259
15.164,1802423
15.1714,1832658
15.1788,1924343
15.1861,1796142
15.1935,1724018
15.2009,1847287
15.2083,1988359
15.2156,2004147
15.223,1832068
15.2304,1767572
15.2378,1839690
15.2451,1801369
15.2525,1710650
15.2599,1650816
15.2673,1627754
15.2746,1575548
15.282,1615977
15.2894,1773525
15.2968,1988289
15.3042,1998545
15.3115,1847023
15.3189,1987342
15.3263,2112639
15.3337,2081639
15.341,2095042
15.3484,1990931
15.3558,1804997
15.3632,1807534
15.3705,1662491
15.3779,1597017
15.3853,1705755
15.3927,1679319
15.4,1558518
15.4074,1555160
15.4148,1674857
15.4222,1812197
15.4296,1685707
15.4369,1725887
15.4443,1964655
15.4517,1850256
15.4591,1669286
15.4664,1690989
15.4738,1674153
15.4812,1714586
15.4886,1809439
15.4959,1828818
15.5033,1547504
15.5107,1506285
15.5181,1721621
15.5254,1665482
15.5328,1602802
15.5402,1580878
15.5476,1625209
15.5549,1809094
15.5623,1706401
15.5697,1496355
15.5771,1431701
15.5845,1351885
15.5918,1290300
15.5992,1325020
15.6066,1687585
15.614,3690729
15.6213,6484188
15.6287,4850052
15.6361,1898001
15.6435,1414463
15.6508,1404480
15.6582,1446933
15.6656,1440205
15.673,1403050
15.6803,1423123
15.6877,1407697
15.6951,1362551
15.7025,1425747
15.7099,1514989
15.7172,1490828
15.7246,1422406
15.732,1372563
15.7394,1338090
15.7467,1283736
15.7541,1229735
15.7615,1246519
15.7689,1213084
15.7762,1262535
15.7836,1540931
15.791,1872993
15.7984,1824808
15.8057,1557844
15.8131,1382088
15.8205,1316061
15.8279,1391748
15.8353,1399495
15.8426,1259275
15.85,1284077
15.8574,1237594
15.8648,1147066
15.8721,1165609
15.8795,1263019
15.8869,1333781
15.8943,1293088
15.9016,1424171
15.909,1453890
15.9164,1275668
15.9238,1202941
15.9311,1189249
15.9385,1192148
15.9459,1281820
15.9533,1289109
15.9606,1121590
15.968,1070630
15.9754,1085909
15.9828,1195423
15.9902,1169271
15.9975,1074313
16.0049,1017009
16.0123,1020720
16.0196,1108883
16.027,1185696
16.0344,1136534
16.0418,1081224
16.0492,1077963
16.0565,1970949
16.0639,4112775
16.0713,3238839
16.0787,1397802
16.086,1036697
16.0934,959890
16.1008,983958
16.1082,1018756
16.1155,1022098
16.1229,990694
16.1303,972483
16.1377,975918
16.1451,1044719
16.1524,1113796
16.1598,1080936
16.1672,992583
16.1746,933727
16.1819,924756
16.1893,910052
16.1967,873659
16.2041,859000
16.2114,883115
16.2188,994891
16.2262,1042419
16.2336,972929
16.241,943048
16.2483,942543
16.2557,924604
16.2631,898509
16.2705,860578
16.2778,825729
16.2852,854669
16.2926,816775
16.2999,750804
16.3073,735610
16.3147,784128
16.3221,832842
16.3295,826755
16.3368,862789
16.3442,858291
16.3516,769665
16.359,742037
16.3663,717752
16.3737,718396
16.3811,764161
16.3885,811424
16.3958,719624
16.4032,682510
16.4106,663520
16.418,649808
16.4254,654597
16.4327,681644
16.4401,707825
16.4475,663575
16.4549,618175
16.4622,582298
16.4696,587413
16.477,607318
16.4844,686891
16.4917,796662
16.4991,1382014
16.5065,2289207
16.5139,1749729
16.5212,852830
16.5286,617874
16.536,594225
16.5434,612883
16.5508,614492
16.5581,605111
16.5655,585086
16.5729,555289
16.5802,540498
16.5876,538852
16.595,547869
16.6024,544047
16.6098,551299
16.6171,566882
16.6245,574040
16.6319,537308
16.6393,504942
16.6467,497423
16.654,493409
16.6614,539496
16.6688,605300
16.6762,591445
16.6835,551123
16.6909,523919
16.6983,500239
16.7056,497560
16.713,486352
16.7204,502003
16.7278,487601
16.7352,475869
16.7425,460558
16.7499,444287
16.7573,421773
16.7647,430999
16.7721,450380
16.7794,482034
16.7868,474920
16.7942,470487
16.8015,492036
16.8089,466935
16.8163,421625
16.8237,400723
16.8311,402976
16.8384,401578
16.8458,415591
16.8532,440444
16.8606,436248
16.8679,413247
16.8753,379290
16.8827,365047
16.8901,353253
16.8974,350550
16.9048,365273
16.9122,367431
16.9196,372347
16.927,371049
16.9343,352486
16.9417,339280
16.9491,340116
16.9565,335416
16.9638,364000
16.9712,575115
16.9786,976690
16.9859,1056283
16.9933,688563
17.0007,422468
17.0081,353689
17.0155,337240
17.0228,339914
17.0302,334074
17.0376,318433
17.045,310828
17.0524,306605
17.0597,305321
17.0671,293482
17.0745,287483
17.0818,282511
17.0892,276517
17.0966,273194
17.104,273149
17.1114,273900
17.1187,275959
17.1261,273538
17.1335,271538
17.1409,273627
17.1482,286322
17.1556,305029
17.163,309843
17.1704,300373
17.1778,282031
17.1851,267790
17.1925,264819
17.1999,250469
17.2072,245004
17.2146,246895
17.222,241901
17.2294,240474
17.2368,232448
17.2441,235639
17.2515,232208
17.2589,232033
17.2663,234539
17.2736,234788
17.281,241584
17.2884,247441
17.2958,250937
17.3031,256317
17.3105,267840
17.3179,258182
17.3253,241534
17.3327,228457
17.34,214372
17.3474,212046
17.3548,215908
17.3622,218685
17.3695,221838
17.3769,223678
17.3843,212716
17.3916,205101
17.399,196806
17.4064,193614
17.4138,191237
17.4212,190199
17.4285,189381
17.4359,188183
17.4433,184323
17.4507,188572
17.4581,189888
17.4654,190983
17.4728,190151
17.4802,183753
17.4876,174354
