D:\Data GC-MS\2017\ST\GILEAD STD\SOLER\SOL 11 60% EVP LIQ.D 05 Jun 17  12:20 pm
Start of data points
1.29385,7778575
1.3006,7543718
1.30733,7305183
1.31408,7098106
1.32082,6902046
1.32757,6737632
1.3343,6546647
1.34105,6338787
1.3478,6093440
1.35453,5821508
1.36128,5545985
1.36802,5263263
1.37477,4991417
1.3815,4699217
1.38825,4389689
1.395,4094579
1.40173,3828049
1.40848,3582575
1.41522,3357538
1.42197,3149454
1.4287,2940623
1.43545,2762293
1.4422,2597479
1.44893,2450628
1.45568,2325495
1.46242,2207111
1.46917,2121588
1.4759,2027999
1.48265,1939411
1.4894,1860947
1.51025,6141148
1.51763,5957119
1.525,5710998
1.53238,5447256
1.53977,5201778
1.54713,4953429
1.55452,4707807
1.56188,4456980
1.56927,4214193
1.57663,3981035
1.58402,3742291
1.5914,3534662
1.59877,3298725
1.60615,3100308
1.61352,2905667
1.6209,2710069
1.62828,2530187
1.63565,2361544
1.64303,2179946
1.6504,2031670
1.65778,1878500
1.66515,1751952
1.67253,1626351
1.67992,1501104
1.68728,1384423
1.69467,1285807
1.70203,1182639
1.70942,1094455
1.7168,1013817
1.72417,941509
1.73155,871131
1.73892,798098
1.7463,735076
1.75367,686135
1.76105,633158
1.76843,587953
1.7758,540674
1.78318,499365
1.79055,460587
1.79793,427658
1.80532,395231
1.81268,361784
1.82007,337987
1.82743,313055
1.83482,290689
1.84218,271940
1.84957,251637
1.85695,234520
1.86432,217143
1.8717,203049
1.87907,188286
1.88645,173096
1.89383,162333
1.9012,153696
1.90858,141444
1.91595,131102
1.92333,124177
1.9307,117039
1.93808,110837
1.94547,103860
1.95283,99147
1.96022,94935
1.96758,88693
1.97497,84833
1.98233,80095
1.98972,76746
1.9971,73280
2.00447,69585
2.01185,66685
2.01922,65692
2.0266,62091
2.03398,59242
2.04135,56727
2.04873,55548
2.0561,53370
2.06348,50787
2.07085,48637
2.07823,46895
2.08562,45536
2.09298,43905
2.10037,43614
2.10773,41886
2.11512,40226
2.1225,39833
2.12987,39542
2.13725,38121
2.14462,36709
2.152,35811
2.15937,35227
2.16675,35187
2.17413,34496
2.1815,34394
2.18888,34159
2.19625,33716
2.20363,33018
2.21102,32772
2.21838,32714
2.22577,32971
2.23313,31750
2.24052,31590
2.24788,31384
2.25527,32146
2.26265,31392
2.27002,30766
2.2774,31307
2.28477,29987
2.29215,29786
2.29953,30615
2.3069,29608
2.31428,29799
2.32165,28700
2.32903,29549
2.3364,30239
2.34378,30330
2.35117,30555
2.35853,30290
2.36592,29931
2.37328,29942
2.38067,29327
2.38805,30904
2.39542,30085
2.4028,30492
2.41017,30431
2.41755,29602
2.42492,30881
2.4323,30016
2.43968,29787
2.44705,31210
2.45443,29666
2.4618,30206
2.46918,29878
2.47657,29626
2.48393,29214
2.49132,30109
2.49868,30047
2.50607,30612
2.51343,30004
2.52082,29622
2.5282,29805
2.53557,29929
2.54295,29101
2.55032,29504
2.5577,30238
2.56507,29147
2.57245,28941
2.57983,29979
2.5872,29471
2.59458,29410
2.60195,28968
2.60933,28945
2.61672,29413
2.62408,29688
2.63147,30760
2.63883,32240
2.64622,31628
2.65358,32678
2.66097,32338
2.66835,32060
2.67572,33157
2.6831,32288
2.69047,32695
2.69785,31978
2.70523,31596
2.7126,31764
2.71998,32088
2.72735,32922
2.73473,32197
2.7421,33413
2.74948,34120
2.75687,33186
2.76423,33389
2.77162,32227
2.77898,32358
2.78637,31611
2.79375,31463
2.80112,30611
2.8085,30282
2.81587,30868
2.82325,30261
2.83062,29803
2.838,30943
2.84538,30546
2.85275,29285
2.86013,29566
2.8675,29573
2.87488,30604
2.88227,30020
2.88963,30137
2.89702,30119
2.90438,30104
2.91177,29528
2.91913,30176
2.92652,29070
2.9339,30332
2.94127,29740
2.94865,29048
2.95602,29526
2.9634,29727
2.97078,29385
2.97815,29651
2.98553,29166
2.9929,29179
3.00028,30522
3.00765,29010
3.01503,29754
3.02242,29429
3.02978,29630
3.03717,28776
3.04453,29523
3.05192,29700
3.0593,29882
3.06667,29135
3.07405,30397
3.08142,29786
3.0888,29873
3.09617,29997
3.10355,29722
3.11093,29479
3.1183,28782
3.12568,29493
3.13305,29262
3.14043,29221
3.1478,30343
3.15518,30027
3.16257,29163
3.16993,29757
3.17732,29906
3.18468,29635
3.19207,29844
3.19945,29760
3.20682,30658
3.2142,30476
3.22157,29962
3.22895,30016
3.23632,29769
3.2437,30237
3.25108,29276
3.25845,29919
3.26583,29023
3.2732,29805
3.28058,29609
3.28797,29809
3.29533,30436
3.30272,30185
3.31008,30201
3.31747,29766
3.32483,30810
3.33222,30138
3.3396,30473
3.34697,29577
3.35435,31342
3.36172,31237
3.3691,31103
3.37648,29703
3.38385,31092
3.39123,31172
3.3986,30494
3.40598,30977
3.41335,30497
3.42073,31255
3.42812,32067
3.43548,36386
3.44287,40113
3.45023,38992
3.45762,40442
3.465,38276
3.47237,37725
3.47975,35414
3.48712,34651
3.4945,34201
3.50187,33296
3.50925,32087
3.51663,31794
3.524,31573
3.53138,31897
3.53875,31380
3.54613,30898
3.55352,31301
3.56088,30386
3.56827,30902
3.57563,30929
3.58302,30610
3.59038,31554
3.59777,30889
3.60515,31217
3.61252,30144
3.6199,31168
3.62727,31911
3.63465,31305
3.64203,31047
3.6494,31633
3.65678,30998
3.66415,31587
3.67153,31707
3.6789,31979
3.68628,32342
3.69367,32574
3.70103,34259
3.70842,33363
3.71578,34280
3.72317,33777
3.73053,34906
3.73792,33413
3.7453,32987
3.75267,33040
3.76005,31781
3.76742,31674
3.7748,31137
3.78218,32555
3.78955,32651
3.79693,32722
3.8043,33801
3.81168,35100
3.81905,35496
3.82643,36677
3.83382,35039
3.84118,35658
3.84857,34949
3.85593,33343
3.86332,33548
3.8707,32533
3.87807,32480
3.88545,32913
3.89282,32412
3.9002,32731
3.90757,32682
3.91495,32079
3.92233,31754
3.9297,32556
3.93708,32069
3.94445,33411
3.95183,32722
3.95922,32458
3.96658,32343
3.97397,30664
3.98133,32034
3.98872,33062
3.99608,33178
4.00347,31772
4.01085,33375
4.01822,31840
4.0256,32638
4.03297,33030
4.04035,34853
4.04773,34637
4.0551,34238
4.06248,33644
4.06985,32874
4.07723,31158
4.0846,31440
4.09198,31531
4.09937,31472
4.10673,31957
4.11412,31990
4.12148,33155
4.12887,34164
4.13625,36017
4.14362,36563
4.151,36845
4.15837,37052
4.16575,38375
4.17312,39548
4.1805,39424
4.18788,37998
4.19525,39309
4.20263,41017
4.21,39598
4.21738,40747
4.22477,40583
4.23213,40931
4.23952,40653
4.24688,41545
4.25427,40855
4.26163,41790
4.26902,41680
4.2764,41284
4.28377,40368
4.29115,42041
4.29852,43007
4.3059,41876
4.31327,42619
4.32065,41140
4.32803,40773
4.3354,40549
4.34278,38633
4.35015,39815
4.35753,39233
4.36492,39507
4.37228,39538
4.37967,39712
4.38703,39689
4.39442,38638
4.40178,37525
4.40917,38216
4.41655,38250
4.42392,38273
4.4313,37475
4.43867,37098
4.44605,36762
4.45343,36151
4.4608,36324
4.46818,36679
4.47555,36490
4.48293,35020
4.4903,35359
4.49768,36090
4.50507,35952
4.51243,36487
4.51982,35522
4.52718,35417
4.53457,35313
4.54195,36450
4.54932,36035
4.5567,35044
4.56407,35491
4.57145,35509
4.57882,33187
4.5862,34896
4.59358,34537
4.60095,34051
4.60833,35190
4.6157,34640
4.62308,35525
4.63047,35911
4.63783,36662
4.64522,37286
4.65258,36324
4.65997,36260
4.66733,34660
4.67472,34129
4.6821,34657
4.68947,32646
4.69685,33003
4.70422,32564
4.7116,33325
4.71898,33375
4.72635,33602
4.73373,33674
4.7411,35044
4.74848,33277
4.75585,32256
4.76323,31909
4.77062,32882
4.77798,33037
4.78537,33038
4.79273,32391
4.80012,33871
4.8075,32947
4.81487,33061
4.82225,32696
4.82962,34080
4.837,33830
4.84437,33038
4.85175,33206
4.85913,33114
4.8665,34126
4.87388,35619
4.88125,37105
4.88863,36513
4.89602,35393
4.90338,34288
4.91077,34397
4.91813,34386
4.92552,35349
4.93288,35456
4.94027,34375
4.94765,36039
4.95502,35920
4.9624,36474
4.96977,39599
4.97715,39010
4.98452,37100
4.9919,37427
4.99928,36736
5.00665,39916
5.01403,38738
5.0214,35893
5.02878,34899
5.03617,35198
5.04353,32833
5.05092,33142
5.05828,33687
5.06567,33791
5.07303,33420
5.08042,33781
5.0878,33400
5.09517,32812
5.10255,33274
5.10992,32878
5.1173,32906
5.12468,32759
5.13205,32490
5.13943,33526
5.1468,32857
5.15418,32749
5.16155,32628
5.16893,32923
5.17632,32162
5.18368,32307
5.19107,32471
5.19843,32125
5.20582,32006
5.2132,31658
5.22057,31589
5.22795,32264
5.23532,31564
5.2427,33269
5.25007,33510
5.25745,32761
5.26483,32417
5.2722,32386
5.27958,31981
5.28695,32185
5.29433,33073
5.30172,32769
5.30908,32165
5.31647,32423
5.32383,32170
5.33122,32548
5.33858,32673
5.34597,31944
5.35335,32467
5.36072,32545
5.3681,33157
5.37547,34232
5.38285,33124
5.39023,32962
5.3976,32511
5.40498,33170
5.41235,31640
5.41973,33385
5.4271,33569
5.43448,33563
5.44187,34716
5.44923,35661
5.45662,35222
5.46398,33800
5.47137,33305
5.47875,31808
5.48612,32347
5.4935,33029
5.50087,33658
5.50825,33603
5.51562,31901
5.523,32351
5.53038,32189
5.53775,31947
5.54513,32748
5.5525,32393
5.55988,32483
5.56725,32998
5.57463,33212
5.58202,33803
5.58938,32569
5.59677,32266
5.60413,33889
5.61152,34580
5.6189,36128
5.62627,37105
5.63365,37687
5.64102,39059
5.6484,36031
5.65577,34333
5.66315,34336
5.67053,35023
5.6779,36746
5.68528,36667
5.69265,37008
5.70003,35891
5.70742,35597
5.71478,37323
5.72217,42841
5.72953,51156
5.73692,49524
5.74428,46696
5.75167,43917
5.75905,41021
5.76642,37354
5.7738,34773
5.78117,34077
5.78855,35810
5.79593,38902
5.8033,41606
5.81068,43351
5.81805,40003
5.82543,37026
5.8328,34666
5.84018,33421
5.84757,33952
5.85493,34689
5.86232,35456
5.86968,34846
5.87707,33087
5.88445,33526
5.89182,33442
5.8992,33394
5.90657,32790
5.91395,33194
5.92132,32818
5.9287,32904
5.93608,33724
5.94345,37155
5.95083,37636
5.9582,36353
5.96558,34532
5.97297,35339
5.98033,34696
5.98772,35021
5.99508,36060
6.00247,36842
6.00983,35400
6.01722,35033
6.0246,35808
6.03197,37261
6.03935,38662
6.04672,37488
6.0541,35443
6.06148,35391
6.06885,36557
6.07623,36074
6.0836,37214
6.09098,43246
6.09835,62885
6.10573,75890
6.11312,70673
6.12048,83629
6.12787,96370
6.13523,70217
6.14262,44074
6.14998,36239
6.15737,35265
6.16475,37139
6.17212,39545
6.1795,37613
6.18687,33367
6.19425,30852
6.20163,31036
6.209,29996
6.21638,29529
6.22375,28764
6.23113,29723
6.2385,27687
6.24588,27955
6.25327,26448
6.26063,27835
6.26802,27614
6.27538,26656
6.28277,27037
6.29015,27288
6.29752,27614
6.3049,27113
6.31227,26539
6.31965,26448
6.32702,26314
6.3344,26120
6.34178,26137
6.34915,25974
6.35653,25018
6.3639,25510
6.37128,27805
6.37867,30750
6.38603,31816
6.39342,28764
6.40078,24891
6.40817,25986
6.41553,26339
6.42292,27097
6.4303,28678
6.43767,33466
6.44505,35546
6.45242,30498
6.4598,27205
6.46718,25671
6.47455,25453
6.48193,24007
6.4893,25416
6.49668,24569
6.50405,24824
6.51143,25307
6.51882,27271
6.52618,29025
6.53357,27977
6.54093,26062
6.54832,25143
6.5557,28209
6.56307,28006
6.57045,27142
6.57782,24712
6.5852,24576
6.59257,25076
6.59995,26905
6.60733,26840
6.6147,25141
6.62208,24023
6.62945,24062
6.63683,23773
6.64422,23969
6.65158,23774
6.65897,23042
6.66633,23287
6.67372,25322
6.68108,26208
6.68847,25354
6.69585,24649
6.70322,24114
6.7106,25422
6.71797,24970
6.72535,27145
6.73272,27145
6.7401,30807
6.74748,31757
6.75485,28276
6.76223,27909
6.7696,26852
6.77698,26628
6.78437,29105
6.79173,32158
6.79912,33688
6.80648,29659
6.81387,30701
6.82123,34027
6.82862,35610
6.836,32639
6.84337,28255
6.85075,24294
6.85812,23754
6.8655,26437
6.87288,26434
6.88025,26886
6.88763,27347
6.895,27694
6.90238,31984
6.90975,32161
6.91713,29212
6.92452,27067
6.93188,27024
6.93927,26889
6.94663,27671
6.95402,26376
6.9614,25188
6.96877,24793
6.97615,24414
6.98352,23672
6.9909,23802
6.99827,23559
7.00565,24379
7.01303,24903
7.0204,25357
7.02778,26380
7.03515,27737
7.04253,26581
7.04992,28909
7.05728,28301
7.06467,25301
7.07203,23378
7.07942,24649
7.08678,26574
7.09417,27735
7.10155,25578
7.10892,25886
7.1163,29485
7.12367,30878
7.13105,29940
7.13843,30701
7.1458,29596
7.15318,27609
7.16055,28384
7.16793,26754
7.1753,24292
7.18268,23550
7.19007,23986
7.19743,26080
7.20482,40183
7.21218,80005
7.21957,85245
7.22695,45794
7.23432,29198
7.2417,26345
7.24907,26730
7.25645,26779
7.26382,28695
7.2712,32972
7.27858,36623
7.28595,32159
7.29333,27185
7.3007,25560
7.30808,26161
7.31545,26046
7.32283,26600
7.33022,25787
7.33758,25632
7.34497,26154
7.35233,25979
7.35972,26706
7.3671,26510
7.37447,25572
7.38185,26465
7.38922,26362
7.3966,27001
7.40397,26616
7.41135,26145
7.41873,26270
7.4261,28313
7.43348,27509
7.44085,26830
7.44823,28391
7.45562,29142
7.46298,28208
7.47037,26553
7.47773,25975
7.48512,26992
7.49248,27678
7.49987,32297
7.50725,32039
7.51462,29408
7.522,26539
7.52937,25985
7.53675,25554
7.54413,25825
7.5515,26244
7.55888,26390
7.56625,26888
7.57363,27473
7.581,28219
7.58838,27089
7.59577,26886
7.60313,28287
7.61052,27535
7.61788,27983
7.62527,28256
7.63265,29508
7.64002,27837
7.6474,26819
7.65477,29195
7.66215,30308
7.66952,30204
7.6769,27820
7.68428,27148
7.69165,26721
7.69903,27108
7.7064,27570
7.71378,28290
7.72117,28486
7.72853,27971
7.73592,28205
7.74328,29475
7.75067,27892
7.75803,27730
7.76542,27449
7.7728,27665
7.78017,26927
7.78755,26787
7.79492,26224
7.8023,25567
7.80968,25210
7.81705,26589
7.82443,27897
7.8318,29308
7.83918,29836
7.84655,28848
7.85393,27196
7.86132,24817
7.86868,27599
7.87607,29774
7.88343,27564
7.89082,25012
7.89818,25204
7.90557,26018
7.91295,25371
7.92032,23790
7.9277,23956
7.93507,24487
7.94245,27982
7.94983,29382
7.9572,28156
7.96458,25868
7.97195,25263
7.97933,25259
7.9867,25109
7.99408,24338
8.00147,24040
8.00883,24024
8.01622,23887
8.02358,24791
8.03097,24627
8.03835,23525
8.04572,23036
8.0531,23928
8.06047,23631
8.06785,23639
8.07522,23432
8.0826,23057
8.08998,23563
8.09735,23533
8.10473,23558
8.1121,24197
8.11948,23170
8.12687,24335
8.13423,24556
8.14162,25449
8.14898,26741
8.15637,26331
8.16373,26075
8.17112,26470
8.1785,27381
8.18587,27091
8.19325,26062
8.20062,27371
8.208,27366
8.21538,26599
8.22275,30886
8.23013,50055
8.2375,66438
8.24488,48438
8.25225,29804
8.25963,25099
8.26702,24745
8.27438,25018
8.28177,25533
8.28913,25860
8.29652,26502
8.3039,30960
8.31127,35967
8.31865,31382
8.32602,27418
8.3334,24897
8.34077,25205
8.34815,24381
8.35553,25591
8.3629,26366
8.37028,29207
8.37765,30706
8.38503,27248
8.39242,25433
8.39978,25152
8.40717,25227
8.41453,24579
8.42192,24288
8.42928,24554
8.43667,24114
8.44405,24945
8.45142,27487
8.4588,26978
8.46617,26902
8.47355,24884
8.48092,24757
8.4883,23568
8.49568,24519
8.50305,24503
8.51043,25076
8.5178,25324
8.52518,25645
8.53257,25811
8.53993,25835
8.54732,26706
8.55468,25200
8.56207,24999
8.56943,24572
8.57682,24647
8.5842,24879
8.59157,25288
8.59895,25890
8.60632,25834
8.6137,26059
8.62108,24758
8.62845,24264
8.63583,24866
8.6432,25666
8.65058,25490
8.65795,25943
8.66533,27492
8.67272,29595
8.68008,29126
8.68747,27777
8.69483,27328
8.70222,26171
8.7096,26373
8.71697,26449
8.72435,25518
8.73172,25000
8.7391,26148
8.74647,28234
8.75385,31068
8.76123,43007
8.7686,63232
8.77598,59223
8.78335,45470
8.79073,38026
8.79812,36287
8.80548,37249
8.81287,39416
8.82023,37008
8.82762,33554
8.83498,32418
8.84237,33048
8.84975,38472
8.85712,41013
8.8645,37046
8.87187,32710
8.87925,33149
8.88663,30940
8.894,29540
8.90138,30754
8.90875,32665
8.91613,37279
8.9235,38893
8.93088,38891
8.93827,44994
8.94563,46878
8.95302,38127
8.96038,33511
8.96777,31997
8.97515,31077
8.98252,31182
8.9899,33790
8.99727,32742
9.00465,32429
9.01202,31171
9.0194,30353
9.02678,30670
9.03415,29735
9.04153,30477
9.0489,30540
9.05628,29756
9.06365,29584
9.07103,28713
9.07842,30573
9.08578,32366
9.09317,31624
9.10053,31776
9.10792,30499
9.1153,32258
9.12267,33632
9.13005,35844
9.13742,37279
9.1448,39411
9.15217,40048
9.15955,36367
9.16693,35303
9.1743,37604
9.18168,52599
9.18905,117133
9.19643,151789
9.20382,91166
9.21118,45962
9.21857,37608
9.22593,36704
9.23332,36406
9.24068,36510
9.24807,39188
9.25545,40163
9.26282,37426
9.2702,38205
9.27757,43163
9.28495,46556
9.29233,45606
9.2997,46217
9.30708,41586
9.31445,38229
9.32183,38293
9.3292,38050
9.33658,39857
9.34397,43282
9.35133,47402
9.35872,52713
9.36608,57820
9.37347,53885
9.38085,46970
9.38822,45917
9.3956,47815
9.40297,47864
9.41035,47526
9.41772,44852
9.4251,37682
9.43248,34751
9.43985,37301
9.44723,39828
9.4546,42585
9.46198,42693
9.46937,42322
9.47673,42633
9.48412,46584
9.49148,45792
9.49887,43035
9.50623,44701
9.51362,44903
9.521,45467
9.52837,44575
9.53575,40843
9.54312,40726
9.5505,42448
9.55788,45785
9.56525,45944
9.57263,44685
9.58,42661
9.58738,41103
9.59475,39558
9.60213,40385
9.60952,39332
9.61688,40190
9.62427,43986
9.63163,47459
9.63902,52918
9.6464,68965
9.65377,83954
9.66115,74268
9.66852,55082
9.6759,53738
9.68327,60506
9.69065,57079
9.69803,49051
9.7054,49866
9.71278,51487
9.72015,58556
9.72753,74312
9.7349,74406
9.74228,62753
9.74967,53083
9.75703,49762
9.76442,62515
9.77178,89686
9.77917,85325
9.78655,63911
9.79392,59044
9.8013,55400
9.80867,51377
9.81605,51784
9.82342,53345
9.8308,72645
9.83818,96130
9.84555,95493
9.85293,75677
9.8603,66237
9.86768,62232
9.87507,61010
9.88243,70413
9.88982,114806
9.89718,143046
9.90457,93629
9.91193,60061
9.91932,54363
9.9267,53772
9.93407,53072
9.94145,53460
9.94882,55532
9.9562,56646
9.96358,53787
9.97095,50846
9.97833,51755
9.9857,53764
9.99308,56320
10.0005,58831
10.0078,59958
10.0152,60262
10.0226,61310
10.03,61957
10.0373,62682
10.0447,63847
10.0521,68568
10.0595,77232
10.0669,81520
10.0742,89077
10.0816,140277
10.089,355454
10.0964,564164
10.1037,359260
10.1111,135877
10.1185,91467
10.1259,95354
10.1332,99733
10.1406,88610
10.148,77289
10.1554,78226
10.1627,89727
10.1701,94790
10.1775,103552
10.1849,110378
10.1923,113067
10.1996,103584
10.207,89473
10.2144,82788
10.2218,84647
10.2291,95549
10.2365,106339
10.2439,90441
10.2513,74971
10.2586,72483
10.266,72914
10.2734,73367
10.2808,81705
10.2881,86381
10.2955,82192
10.3029,76466
10.3103,77730
10.3176,81416
10.325,87721
10.3324,94036
10.3398,91053
10.3472,85889
10.3545,82847
10.3619,82359
10.3693,85059
10.3767,87532
10.384,97445
10.3914,104672
10.3988,101490
10.4062,94897
10.4135,98030
10.4209,106438
10.4283,106766
10.4357,97374
10.443,96452
10.4504,103353
10.4578,104131
10.4652,99625
10.4726,102825
10.4799,110750
10.4873,112909
10.4947,117002
10.5021,135074
10.5094,154950
10.5168,171568
10.5242,179435
10.5316,152800
10.5389,128121
10.5463,152794
10.5537,191669
10.5611,208912
10.5684,193560
10.5758,152674
10.5832,131705
10.5906,150569
10.598,194822
10.6053,174892
10.6127,133309
10.6201,168356
10.6275,319270
10.6348,444345
10.6422,397775
10.6496,231959
10.657,150770
10.6643,138097
10.6717,127236
10.6791,125577
10.6865,127019
10.6938,151212
10.7012,234660
10.7086,256361
10.716,174314
10.7234,128999
10.7307,130353
10.7381,133868
10.7455,135766
10.7529,133219
10.7602,137387
10.7676,138025
10.775,135236
10.7824,137216
10.7897,163647
10.7971,184170
10.8045,163783
10.8119,139585
10.8192,134117
10.8266,149705
10.834,172357
10.8414,161205
10.8487,136680
10.8561,129658
10.8635,134369
10.8709,142379
10.8783,164625
10.8856,202399
10.893,205737
10.9004,184635
10.9078,186104
10.9151,187762
10.9225,197441
10.9299,294673
10.9373,833506
10.9446,1696730
10.952,1393826
10.9594,567137
10.9668,278639
10.9741,222059
10.9815,203926
10.9889,222744
10.9963,230959
11.0037,239608
11.011,270378
11.0184,309900
11.0258,310424
11.0332,258367
11.0405,222543
11.0479,226883
11.0553,246811
11.0627,279656
11.07,289766
11.0774,272906
11.0848,233974
11.0922,210452
11.0995,205206
11.1069,203585
11.1143,208543
11.1217,222837
11.1291,241907
11.1364,243564
11.1438,222644
11.1512,205718
11.1586,209835
11.1659,221562
11.1733,236126
11.1807,270833
11.1881,276543
11.1954,238958
11.2028,231976
11.2102,223665
11.2176,225218
11.2249,255806
11.2323,270567
11.2397,254478
11.2471,244117
11.2544,222835
11.2618,207279
11.2692,224318
11.2766,235265
11.284,244582
11.2913,256709
11.2987,256529
11.3061,263442
11.3135,331471
11.3208,464241
11.3282,554912
11.3356,519211
11.343,511704
11.3503,428761
11.3577,378246
11.3651,443902
11.3725,533112
11.3798,501338
11.3872,454632
11.3946,452524
11.402,425432
11.4094,492580
11.4167,684520
11.4241,740647
11.4315,527056
11.4389,362339
11.4462,374098
11.4536,583044
11.461,849402
11.4684,754813
11.4757,559386
11.4831,562246
11.4905,558092
11.4979,487874
11.5052,424039
11.5126,505622
11.52,739249
11.5274,755232
11.5348,505880
11.5421,382428
11.5495,394233
11.5569,430706
11.5643,441956
11.5716,470001
11.579,452901
11.5864,421476
11.5938,431973
11.6011,429228
11.6085,393755
11.6159,395636
11.6233,420123
11.6306,423266
11.638,429699
11.6454,447842
11.6528,462963
11.6601,455085
11.6675,445579
11.6749,476440
11.6823,553880
11.6897,605345
11.697,589311
11.7044,538591
11.7118,493824
11.7192,495823
11.7265,503104
11.7339,691817
11.7413,1749439
11.7487,3904833
11.756,4416245
11.7634,2182617
11.7708,888154
11.7782,649340
11.7855,662337
11.7929,728372
11.8003,859512
11.8077,960304
11.8151,927003
11.8224,898897
11.8298,864712
11.8372,819309
11.8446,821344
11.8519,801740
11.8593,783044
11.8667,792530
11.8741,777809
11.8814,700109
11.8888,660977
11.8962,729897
11.9036,753489
11.9109,714278
11.9183,792854
11.9257,837923
11.9331,731094
11.9405,688190
11.9478,731007
11.9552,792534
11.9626,792793
11.97,736221
11.9773,757883
11.9847,824393
11.9921,779081
11.9995,695791
12.0068,704799
12.0142,780003
12.0216,841130
12.029,845938
12.0363,783702
12.0437,729731
12.0511,693451
12.0585,681011
12.0658,708063
12.0732,768959
12.0806,823679
12.088,960354
12.0954,1328082
12.1027,1633205
12.1101,1554977
12.1175,1537005
12.1249,2046468
12.1322,2502216
12.1396,2199265
12.147,1685843
12.1544,1548528
12.1617,1294361
12.1691,1066148
12.1765,1013947
12.1839,1053510
12.1912,1193940
12.1986,1514960
12.206,1496221
12.2134,1243050
12.2208,1210817
12.2281,1376648
12.2355,1998308
12.2429,2452631
12.2503,1869063
12.2576,1212488
12.265,1111542
12.2724,1153187
12.2798,1200623
12.2871,1338901
12.2945,1649814
12.3019,2016750
12.3093,1728712
12.3166,1196675
12.324,1101637
12.3314,1140785
12.3388,1115294
12.3462,1086943
12.3535,1088423
12.3609,1146574
12.3683,1146933
12.3757,1078773
12.383,1058481
12.3904,1165050
12.3978,1302199
12.4052,1323565
12.4125,1291138
12.4199,1334759
12.4273,1456833
12.4347,1456798
12.442,1414828
12.4494,1396345
12.4568,1338074
12.4642,1269447
12.4716,1224341
12.4789,1287078
12.4863,1381569
12.4937,1509379
12.5011,1976960
12.5084,3697508
12.5158,6832854
12.5232,8069074
12.5306,4768480
12.5379,1912252
12.5453,1694630
12.5527,2432866
12.5601,4178218
12.5674,5603881
12.5748,4465526
12.5822,2700116
12.5896,2277853
12.5969,2089543
12.6043,1956978
12.6117,1955199
12.6191,1979563
12.6265,1963985
12.6338,1806149
12.6412,1618122
12.6486,1574011
12.656,1634400
12.6633,1617401
12.6707,1568977
12.6781,1619154
12.6855,1773601
12.6928,1899794
12.7002,1843311
12.7076,1774397
12.715,1661298
12.7223,1679913
12.7297,1731865
12.7371,1775724
12.7445,1627128
12.7519,1548369
12.7592,1583049
12.7666,1699150
12.774,1980765
12.7814,2027323
12.7887,1775475
12.7961,1584825
12.8035,1562081
12.8109,1558182
12.8182,1607347
12.8256,1954381
12.833,2752416
12.8404,3292607
12.8477,3221683
12.8551,2862718
12.8625,2615231
12.8699,2412537
12.8773,2028575
12.8846,1975804
12.892,2436229
12.8994,2799510
12.9068,2643101
12.9141,2298449
12.9215,1964725
12.9289,2054741
12.9363,2636925
12.9436,3092137
12.951,2579233
12.9584,2074171
12.9658,2067722
12.9731,2760282
12.9805,3594942
12.9879,3339133
12.9953,2556443
13.0026,2152700
13.01,2343748
13.0174,2520983
13.0248,2306379
13.0322,2509825
13.0395,3361838
13.0469,3188211
13.0543,2384694
13.0617,1985181
13.069,1968053
13.0764,2194155
13.0838,2190835
13.0912,2083225
13.0985,2110588
13.1059,2191106
13.1133,2302042
13.1207,2334328
13.128,2293804
13.1354,2233527
13.1428,2066847
13.1502,2059972
13.1576,2269390
13.1649,2331117
13.1723,2232301
13.1797,2233448
13.1871,2253473
13.1944,2249614
13.2018,2306770
13.2092,2329826
13.2166,2319046
13.2239,2461833
13.2313,3366789
13.2387,6231964
13.2461,9707580
13.2534,9738874
13.2608,4642898
13.2682,2450729
13.2756,2529289
13.283,2748177
13.2903,2724921
13.2977,2847079
13.3051,3572808
13.3125,5184572
13.3198,6763575
13.3272,6199448
13.3346,4235068
13.342,3221729
13.3493,2721456
13.3567,2431838
13.3641,2435305
13.3715,2432985
13.3788,2360717
13.3862,2378859
13.3936,2536541
13.401,2558979
13.4083,2522513
13.4157,2390766
13.4231,2253204
13.4305,2298088
13.4379,2392705
13.4452,2554272
13.4526,2489999
13.46,2345916
13.4674,2218851
13.4747,2228635
13.4821,2507084
13.4895,2781482
13.4969,2750963
13.5042,2548740
13.5116,2342334
13.519,2309354
13.5264,2613002
13.5337,3262254
13.5411,3762811
13.5485,3614101
13.5559,3436166
13.5633,3293876
13.5706,3317144
13.578,3047696
13.5854,2593093
13.5928,2622236
13.6001,2993963
13.6075,2942509
13.6149,2656447
13.6223,2574140
13.6296,2535351
13.637,2629220
13.6444,3167750
13.6518,3448830
13.6591,2978912
13.6665,2718550
13.6739,2907525
13.6813,3526114
13.6887,3623984
13.696,2918102
13.7034,2625436
13.7108,2743817
13.7182,2938184
13.7255,2655337
13.7329,2723338
13.7403,3675255
13.7477,4320993
13.755,3533642
13.7624,2690027
13.7698,2480137
13.7772,2463894
13.7845,2472323
13.7919,2532166
13.7993,2715147
13.8067,2878328
13.814,2923036
13.8214,2810730
13.8288,2632269
13.8362,2624958
13.8436,2676914
13.8509,2677526
13.8583,2594868
13.8657,2607611
13.8731,2719892
13.8804,3197767
13.8878,3744778
13.8952,3755344
13.9026,3288741
13.9099,2806753
13.9173,2905907
13.9247,4281042
13.9321,7540078
13.9394,10437570
13.9468,8626769
13.9542,3919867
13.9616,2975319
13.969,2931088
13.9763,2688216
13.9837,2703148
13.9911,2908764
13.9985,3151079
14.0058,3251171
14.0132,3180512
14.0206,3075596
14.028,3080334
14.0353,3142410
14.0427,3228723
14.0501,3085414
14.0575,2906006
14.0648,2801924
14.0722,2925219
14.0796,2972530
14.087,2774369
14.0944,2563657
14.1017,2500756
14.1091,2603429
14.1165,2805183
14.1239,2707409
14.1312,2569526
14.1386,2543508
14.146,2558013
14.1534,2697736
14.1607,2844462
14.1681,2844130
14.1755,2716094
14.1829,2707312
14.1902,3036426
14.1976,3572106
14.205,4034234
14.2124,3840746
14.2198,3621809
14.2271,3379158
14.2345,3342055
14.2419,3499889
14.2493,3136639
14.2566,2858352
14.264,3152150
14.2714,3388833
14.2788,3048250
14.2861,2640598
14.2935,2588870
14.3009,2814203
14.3083,3388045
14.3156,3652642
14.323,3202206
14.3304,2953181
14.3378,3435146
14.3451,3904210
14.3525,3406088
14.3599,2817740
14.3673,2848686
14.3747,2885400
14.382,2825246
14.3894,3187959
14.3968,3968822
14.4042,3918544
14.4115,3161295
14.4189,2948164
14.4263,3252208
14.4337,3464279
14.441,3135438
14.4484,2868250
14.4558,2878143
14.4632,3022608
14.4705,3227787
14.4779,3165309
14.4853,3067962
14.4927,2989345
14.5001,3021630
14.5074,2946381
14.5148,2845471
14.5222,2855360
14.5296,2849798
14.5369,2726574
14.5443,2834932
14.5517,3392725
14.5591,5313524
14.5664,8766423
14.5738,10451607
14.5812,6270184
14.5886,3433088
14.5959,3069784
14.6033,2895514
14.6107,2962162
14.6181,3049298
14.6255,3069865
14.6328,3142657
14.6402,3208482
14.6476,3291678
14.655,3141076
14.6623,3081954
14.6697,3257243
14.6771,3424312
14.6845,3387604
14.6918,3248106
14.6992,2896502
14.7066,2799753
14.714,2772796
14.7213,2754679
14.7287,2653928
14.7361,2624376
14.7435,2709794
14.7508,2688581
14.7582,2654278
14.7656,2748130
14.773,2914108
14.7804,3230709
14.7877,3768293
14.7951,4176441
14.8025,3867238
14.8099,3615732
14.8172,3554087
14.8246,3480521
14.832,3578944
14.8394,3203368
14.8467,2964386
14.8541,3247282
14.8615,3346751
14.8689,3050986
14.8762,2884991
14.8836,2863023
14.891,3304249
14.8984,3496858
14.9058,3270083
14.9131,3042358
14.9205,3569768
14.9279,3753668
14.9353,3092656
14.9426,2795898
14.95,2872909
14.9574,2739025
14.9648,2886487
14.9721,3697515
14.9795,3925898
14.9869,3662129
14.9943,3674904
15.0016,3520182
15.009,3241063
15.0164,3283713
15.0238,3555920
15.0312,3317724
15.0385,3072168
15.0459,3077374
15.0533,3089634
15.0607,2923052
15.068,2804589
15.0754,2767633
15.0828,2756845
15.0902,2698974
15.0975,2755008
15.1049,3116849
15.1123,5279273
15.1197,9100446
15.127,9578624
15.1344,5013555
15.1418,3009922
15.1492,2822787
15.1565,2840324
15.1639,2973811
15.1713,3150495
15.1787,2946998
15.1861,2832558
15.1934,3096241
15.2008,3276334
15.2082,3246276
15.2156,3005858
15.2229,2981022
15.2303,3065205
15.2377,2991861
15.2451,2828959
15.2524,2766895
15.2598,2739325
15.2672,2617596
15.2746,2602234
15.2819,2762835
15.2893,3073028
15.2967,3122223
15.3041,3090805
15.3115,3459542
15.3188,3764432
15.3262,3800382
15.3336,3659562
15.341,3375220
15.3483,3272655
15.3557,3332549
15.3631,2878128
15.3705,2812856
15.3778,3134683
15.3852,2969339
15.3926,2718784
15.4,2768917
15.4073,3093484
15.4147,3312273
15.4221,2971029
15.4295,3058050
15.4369,3521788
15.4442,3225742
15.4516,2822063
15.459,2828613
15.4664,2851036
15.4737,2980405
15.4811,3361987
15.4885,3331485
15.4959,2824256
15.5032,2873601
15.5106,3026830
15.518,2907273
15.5254,2899994
15.5327,2876603
15.5401,3082000
15.5475,3280142
15.5549,2976955
15.5623,2660303
15.5696,2575593
15.577,2506000
15.5844,2565342
15.5918,2574041
15.5991,3141892
15.6065,5670097
15.6139,8712967
15.6213,6478746
15.6286,3138000
15.636,2684773
15.6434,2711132
15.6508,2812977
15.6581,2910446
15.6655,2890741
15.6729,2923769
15.6803,2784606
15.6876,2666358
15.695,2802942
15.7024,2921968
15.7098,2869408
15.7172,2699646
15.7245,2757546
15.7319,2647112
15.7393,2561824
15.7467,2411491
15.754,2425875
15.7614,2424773
15.7688,2597854
15.7762,3233698
15.7835,3922246
15.7909,3821075
15.7983,3272332
15.8057,3000214
15.813,2851502
15.8204,3139341
15.8278,2935987
15.8352,2640799
15.8426,2766098
15.8499,2642601
15.8573,2433613
15.8647,2542675
15.8721,2827945
15.8794,2834113
15.8868,2766120
15.8942,3102267
15.9016,3020028
15.9089,2604074
15.9163,2557825
15.9237,2518558
15.9311,2579059
15.9384,2899685
15.9458,2854910
15.9532,2469692
15.9606,2388547
15.968,2485220
15.9753,2657841
15.9827,2582671
15.9901,2449832
15.9975,2287216
16.0048,2294596
16.0122,2466563
16.0196,2595866
16.0269,2476093
16.0343,2302568
16.0417,2489667
16.0491,4375681
16.0565,6957095
16.0638,5276603
16.0712,2685363
16.0786,2274986
16.086,2234955
16.0933,2458881
16.1007,2500319
16.1081,2411006
16.1155,2299074
16.1229,2250751
16.1302,2246518
16.1376,2476186
16.145,2480000
16.1523,2300671
16.1597,2176580
16.1671,2170924
16.1745,2134791
16.1819,2045743
16.1892,1977021
16.1966,2044395
16.204,2356823
16.2114,2782111
16.2187,2739699
16.2261,2517463
16.2335,2404258
16.2409,2383391
16.2482,2272589
16.2556,2282762
16.263,2133519
16.2704,2061258
16.2778,2226508
16.2851,1966028
16.2925,1774755
16.2999,1836747
16.3073,2070920
16.3146,2070049
16.322,2080125
16.3294,2221475
16.3368,2079771
16.3441,1870826
16.3515,1831887
16.3589,1800185
16.3663,1888653
16.3737,2082012
16.381,2031431
16.3884,1807865
16.3958,1746082
16.4032,1687813
16.4105,1673638
16.4179,1705238
16.4253,1789823
16.4326,1727325
16.44,1635761
16.4474,1514363
16.4548,1469748
16.4622,1524519
16.4695,1631582
16.4769,1794289
16.4843,2298734
16.4917,3776644
16.499,4523979
16.5064,2758154
16.5138,1729192
16.5212,1536334
16.5285,1559044
16.5359,1725099
16.5433,1704166
16.5507,1575766
16.5581,1505238
16.5654,1456310
16.5728,1380560
16.5802,1419159
16.5876,1417361
16.5949,1382066
16.6023,1397018
16.6097,1448448
16.6171,1386712
16.6244,1303523
16.6318,1272071
16.6392,1291616
16.6466,1401054
16.6539,1719418
16.6613,1870052
16.6687,1739670
16.6761,1600003
16.6835,1485459
16.6908,1431161
16.6982,1350216
16.7056,1407563
16.7129,1399160
16.7203,1319550
16.7277,1293137
16.7351,1254827
16.7425,1148143
16.7498,1100403
16.7572,1173983
16.7646,1265063
16.772,1269100
16.7794,1244190
16.7867,1290545
16.7941,1316052
16.8015,1189875
16.8089,1100327
16.8162,1074346
16.8236,1089925
16.831,1123386
16.8383,1237019
16.8457,1254653
16.8531,1165490
16.8605,1075578
16.8679,977196
16.8752,961363
16.8826,941823
16.89,982994
16.8974,961007
16.9047,953472
16.9121,952989
16.9195,912016
16.9269,868065
16.9342,898576
16.9416,874111
16.949,894403
16.9564,1159587
16.9638,1890769
16.9711,2353706
16.9785,1809009
16.9859,1146195
16.9933,911486
17.0006,884625
17.008,914008
17.0154,923773
17.0228,906213
17.0301,827897
17.0375,795777
17.0449,777574
17.0523,750659
17.0597,725336
17.067,704070
17.0744,699676
17.0818,679087
17.0892,669695
17.0965,680258
17.1039,674278
17.1113,677035
17.1186,665245
17.126,670902
17.1334,749912
17.1408,878451
17.1482,900403
17.1555,860407
17.1629,797205
17.1703,747425
17.1777,690028
17.1851,655597
17.1924,630795
17.1998,639419
17.2072,632333
17.2145,597623
17.2219,576806
17.2293,586145
17.2367,593645
17.2441,552751
17.2514,541819
17.2588,554494
17.2662,577360
17.2736,586340
17.2809,594320
17.2883,595392
17.2957,625932
17.3031,608287
17.3104,547518
17.3178,508036
17.3252,497399
17.3326,494771
17.34,494543
17.3473,494235
17.3547,539789
17.3621,530547
17.3695,484920
17.3768,451976
17.3842,423738
17.3916,414688
17.3989,403528
17.4063,402869
17.4137,401293
17.4211,392008
17.4285,385062
17.4358,377731
17.4432,381213
17.4506,394531
17.458,399382
17.4654,379017
17.4727,364237
17.4801,382434
17.4875,501778
