D:\Data GC-MS\2017\ST\GILEAD STD\SOLER\SOL 11 NON EVP HS.D 05 Jun 17  09:50 am
Start of data points
1.29367,7820942
1.30042,7921786
1.30715,8069358
1.3139,8284251
1.32063,8426822
1.32738,8510403
1.33413,8553293
1.34087,8557931
1.34762,8464903
1.35435,8351323
1.3611,8152977
1.36783,7890815
1.37458,7591733
1.38133,7294599
1.38807,6996456
1.39482,6739367
1.40155,6484130
1.4083,6228681
1.41503,5998974
1.42178,5756588
1.42852,5527010
1.43527,5287325
1.44202,5029594
1.44875,4782157
1.4555,4521171
1.46223,4240597
1.46898,3977067
1.47572,3742621
1.48247,3516593
1.48922,3300575
1.51007,9189734
1.51745,8751710
1.52482,8328588
1.5322,7957258
1.53958,7660467
1.54695,7346183
1.55433,7082626
1.5617,6809621
1.56908,6565719
1.57647,6350066
1.58383,6092822
1.59122,5823292
1.59858,5574670
1.60597,5339951
1.61333,5076982
1.62072,4855963
1.6281,4617959
1.63547,4396228
1.64285,4152092
1.65022,3942078
1.6576,3701695
1.66498,3478837
1.67235,3288722
1.67973,3081527
1.6871,2879384
1.69448,2687792
1.70185,2516955
1.70923,2352956
1.71662,2185414
1.72398,2028527
1.73137,1887735
1.73873,1752669
1.74612,1621279
1.7535,1506181
1.76087,1390229
1.76825,1290384
1.77562,1192991
1.783,1102867
1.79037,1025714
1.79775,950493
1.80513,873889
1.8125,813142
1.81988,750133
1.82725,698343
1.83463,644073
1.84202,594758
1.84938,552223
1.85677,513414
1.86413,471259
1.87152,437073
1.87888,406644
1.88627,375393
1.89365,347675
1.90102,324354
1.9084,299829
1.91577,277348
1.92315,262602
1.93052,242564
1.9379,225007
1.94528,208729
1.95265,194380
1.96003,182767
1.9674,170127
1.97478,160638
1.98217,148816
1.98953,138619
1.99692,130419
2.00428,121326
2.01167,115410
2.01903,108606
2.02642,102532
2.0338,95388
2.04117,93295
2.04855,86939
2.05592,82786
2.0633,78721
2.07068,73487
2.07805,70577
2.08543,66140
2.0928,64986
2.10018,61667
2.10755,58027
2.11493,55518
2.12232,54803
2.12968,52975
2.13707,51051
2.14443,50287
2.15182,49334
2.1592,47780
2.16657,46323
2.17395,45200
2.18132,44412
2.1887,42247
2.19607,41378
2.20345,40983
2.21083,38792
2.2182,39026
2.22558,38188
2.23295,37903
2.24033,36233
2.24772,37602
2.25508,35601
2.26247,35998
2.26983,34053
2.27722,34828
2.28458,33746
2.29197,33523
2.29935,33838
2.30672,33587
2.3141,33168
2.32147,32598
2.32885,31824
2.33623,32370
2.3436,32655
2.35098,31991
2.35835,32232
2.36573,32366
2.3731,31444
2.38048,32187
2.38787,31557
2.39523,32125
2.40262,33957
2.40998,35790
2.41737,36873
2.42475,36939
2.43212,36484
2.4395,37607
2.44687,37199
2.45425,35978
2.46162,35036
2.469,34622
2.47638,35059
2.48375,35434
2.49113,37113
2.4985,38186
2.50588,37431
2.51325,37285
2.52063,35951
2.52802,35524
2.53538,34831
2.54277,34751
2.55013,34433
2.55752,33057
2.5649,33069
2.57227,34079
2.57965,35744
2.58702,35304
2.5944,36172
2.60177,35533
2.60915,36874
2.61653,37497
2.6239,38418
2.63128,39417
2.63865,40361
2.64603,38617
2.65342,38388
2.66078,37162
2.66817,35740
2.67553,35794
2.68292,35492
2.69028,35401
2.69767,34727
2.70505,36525
2.71242,40958
2.7198,41105
2.72717,40322
2.73455,40264
2.74193,40281
2.7493,38910
2.75668,37462
2.76405,37778
2.77143,36277
2.7788,33923
2.78618,34119
2.79357,33560
2.80093,32657
2.80832,32114
2.81568,32365
2.82307,31018
2.83045,31138
2.83782,30630
2.8452,31033
2.85257,30581
2.85995,30973
2.86732,30416
2.8747,30068
2.88208,29209
2.88945,30411
2.89683,29293
2.9042,29711
2.91158,30931
2.91897,30663
2.92633,31438
2.93372,31035
2.94108,32530
2.94847,38365
2.95583,52427
2.96322,64268
2.9706,65959
2.97797,63485
2.98535,61717
2.99272,58768
3.0001,56040
3.00748,53449
3.01485,49917
3.02223,47500
3.0296,44489
3.03698,43478
3.04435,41660
3.05173,41451
3.05912,40755
3.06648,42818
3.07387,44144
3.08123,43541
3.08862,42721
3.09598,40783
3.10337,39036
3.11075,38410
3.11812,38973
3.1255,39731
3.13287,40120
3.14025,40398
3.14763,39705
3.155,38938
3.16238,37420
3.16975,36858
3.17713,34118
3.1845,34412
3.19188,33365
3.19927,32953
3.20663,34599
3.21402,36205
3.22138,37198
3.22877,36216
3.23615,35619
3.24352,34649
3.2509,34336
3.25827,32631
3.26565,32872
3.27302,32468
3.2804,31075
3.28778,31023
3.29515,30332
3.30253,31104
3.3099,30305
3.31728,30180
3.32467,29974
3.33203,31977
3.33942,32396
3.34678,33999
3.35417,34064
3.36153,33366
3.36892,33600
3.3763,34382
3.38367,38195
3.39105,49052
3.39842,57339
3.4058,59295
3.41318,61382
3.42055,61230
3.42793,60493
3.4353,63262
3.44268,61169
3.45005,57987
3.45743,53256
3.46482,48549
3.47218,48892
3.47957,56009
3.48693,60921
3.49432,61523
3.5017,62325
3.50907,58673
3.51645,55910
3.52382,52222
3.5312,47319
3.53857,46177
3.54595,56706
3.55333,77156
3.5607,84444
3.56808,91303
3.57545,93384
3.58283,85059
3.59022,77844
3.59758,68531
3.60497,61270
3.61233,53594
3.61972,46714
3.62708,43552
3.63447,40494
3.64185,39234
3.64922,40063
3.6566,44792
3.66397,50852
3.67135,54953
3.67872,52801
3.6861,56314
3.69348,60311
3.70085,62679
3.70823,66425
3.7156,65550
3.72298,58413
3.73037,53353
3.73773,49871
3.74512,46312
3.75248,44031
3.75987,39912
3.76723,42683
3.77462,61129
3.782,107910
3.78937,143614
3.79675,156348
3.80412,152677
3.8115,134735
3.81888,112916
3.82625,93962
3.83363,77206
3.841,64097
3.84838,53803
3.85575,51004
3.86313,61740
3.87052,76275
3.87788,78927
3.88527,72093
3.89263,65697
3.90002,59647
3.9074,54836
3.91477,50662
3.92215,45118
3.92952,43814
3.9369,43926
3.94427,41455
3.95165,41396
3.95903,40478
3.9664,40056
3.97378,39720
3.98115,38277
3.98853,38408
3.99592,39065
4.00328,37301
4.01067,37586
4.01803,36665
4.02542,33777
4.03278,31814
4.04017,31103
4.04755,36739
4.05492,40488
4.0623,45387
4.06967,46581
4.07705,44659
4.08443,41346
4.0918,39084
4.09918,36067
4.10655,38724
4.11393,44961
4.1213,59855
4.12868,69166
4.13607,68396
4.14343,64840
4.15082,67618
4.15818,68392
4.16557,66492
4.17295,69630
4.18032,73622
4.1877,75604
4.19507,92070
4.20245,128951
4.20982,158604
4.2172,153535
4.22458,130314
4.23195,110097
4.23933,107458
4.2467,113141
4.25408,106607
4.26145,92918
4.26883,86374
4.27622,75085
4.28358,68982
4.29097,66029
4.29833,63554
4.30572,63152
4.3131,63138
4.32047,56048
4.32785,50072
4.33522,44255
4.3426,40763
4.34997,40416
4.35735,40651
4.36473,40929
4.3721,45463
4.37948,51242
4.38685,51217
4.39423,45613
4.40162,42048
4.40898,47077
4.41637,63911
4.42373,80983
4.43112,80957
4.43848,71794
4.44587,65800
4.45325,70144
4.46062,78151
4.468,79529
4.47537,73422
4.48275,64344
4.49013,57152
4.4975,51944
4.50488,48011
4.51225,46387
4.51963,41698
4.527,39974
4.53438,51859
4.54177,91301
4.54913,138757
4.55652,157702
4.56388,140897
4.57127,107897
4.57865,78048
4.58602,57806
4.5934,43048
4.60077,37110
4.60815,33252
4.61552,36251
4.6229,59782
4.63028,130770
4.63765,221537
4.64503,246148
4.6524,203620
4.65978,145209
4.66717,99604
4.67453,69032
4.68192,55428
4.68928,48992
4.69667,51577
4.70403,58011
4.71142,65652
4.7188,73348
4.72617,67829
4.73355,58495
4.74092,50653
4.7483,49312
4.75568,55865
4.76305,57641
4.77043,52207
4.7778,46044
4.78518,51588
4.79255,60867
4.79993,65037
4.80732,69554
4.81468,79380
4.82207,82689
4.82943,79510
4.83682,74758
4.8442,85360
4.85157,107611
4.85895,104920
4.86632,93026
4.8737,87566
4.88107,77006
4.88845,65035
4.89583,55927
4.9032,52163
4.91058,56790
4.91795,75240
4.92533,94438
4.9327,95739
4.94008,74843
4.94747,57069
4.95483,62282
4.96222,144599
4.96958,269322
4.97697,266242
4.98435,187647
4.99172,115585
4.9991,74711
5.00647,52267
5.01385,40219
5.02122,33914
5.0286,30286
5.03598,32294
5.04335,43092
5.05073,55422
5.0581,60215
5.06548,59783
5.07287,68317
5.08023,90480
5.08762,106740
5.09498,94392
5.10237,69692
5.10973,56687
5.11712,56058
5.1245,60799
5.13187,56350
5.13925,46182
5.14662,37756
5.154,36526
5.16138,38188
5.16875,42513
5.17613,51574
5.1835,58499
5.19088,56323
5.19825,47816
5.20563,39156
5.21302,37562
5.22038,38810
5.22777,42329
5.23513,58986
5.24252,79756
5.2499,89772
5.25727,87121
5.26465,84874
5.27202,74946
5.2794,57144
5.28677,44279
5.29415,41648
5.30153,47597
5.3089,60131
5.31628,68003
5.32365,70766
5.33103,68292
5.33842,67343
5.34578,80509
5.35317,123345
5.36053,165372
5.36792,197530
5.37528,186052
5.38267,135270
5.39005,108687
5.39742,101212
5.4048,81655
5.41217,65177
5.41955,52536
5.42693,47371
5.4343,52956
5.44168,62547
5.44905,71551
5.45643,89814
5.4638,119451
5.47118,116945
5.47857,90552
5.48593,76309
5.49332,72521
5.50068,68089
5.50807,60161
5.51543,62115
5.52282,63947
5.5302,62533
5.53757,58242
5.54495,49761
5.55232,48385
5.5597,53479
5.56708,62842
5.57445,64510
5.58183,58043
5.5892,50134
5.59658,46649
5.60395,61965
5.61133,88787
5.61872,107792
5.62608,100370
5.63347,82670
5.64083,72129
5.64822,59384
5.6556,50196
5.66297,61159
5.67035,104232
5.67772,140622
5.6851,160232
5.69247,185631
5.69985,161663
5.70723,123605
5.7146,152966
5.72198,229838
5.72935,237657
5.73673,174069
5.74412,124271
5.75148,102288
5.75887,84296
5.76623,73926
5.77362,64898
5.78098,58526
5.78837,70796
5.79575,133420
5.80312,206939
5.8105,189873
5.81787,116967
5.82525,67138
5.83263,51201
5.84,58540
5.84738,72444
5.85475,94421
5.86213,102699
5.8695,97658
5.87688,88961
5.88427,94641
5.89163,97208
5.89902,83801
5.90638,67532
5.91377,59225
5.92115,57726
5.92852,60835
5.9359,62586
5.94327,66260
5.95065,71513
5.95802,71940
5.9654,97518
5.97278,130225
5.98015,140514
5.98753,115820
5.9949,101598
6.00228,110298
6.00967,114274
6.01703,103220
6.02442,83634
6.03178,72684
6.03917,72656
6.04653,82093
6.05392,82721
6.0613,79840
6.06867,82612
6.07605,71245
6.08342,59293
6.0908,76813
6.09817,153590
6.10555,234973
6.11293,245094
6.1203,386037
6.12768,539513
6.13505,345065
6.14243,140054
6.14982,73162
6.15718,57126
6.16457,58755
6.17193,74735
6.17932,76000
6.18668,58109
6.19407,43068
6.20145,37326
6.20882,34549
6.2162,39579
6.22357,53035
6.23095,58930
6.23833,50244
6.2457,43859
6.25308,52204
6.26045,63578
6.26783,66703
6.2752,67369
6.28258,81016
6.28997,82943
6.29733,71030
6.30472,59031
6.31208,58383
6.31947,58441
6.32685,61921
6.33422,59747
6.3416,61015
6.34897,68533
6.35635,65088
6.36372,59809
6.3711,75315
6.37848,130376
6.38585,145422
6.39323,87792
6.4006,52908
6.40798,49943
6.41537,59047
6.42273,58457
6.43012,70894
6.43748,108563
6.44487,121067
6.45223,102037
6.45962,79325
6.467,61676
6.47437,45859
6.48175,40756
6.48912,46451
6.4965,52413
6.50388,58434
6.51125,71453
6.51863,94369
6.526,109066
6.53338,94840
6.54075,68941
6.54813,69107
6.55552,87635
6.56288,98451
6.57027,80545
6.57763,59529
6.58502,52368
6.5924,49077
6.59977,52790
6.60715,53398
6.61452,46585
6.6219,44989
6.62927,46819
6.63665,53962
6.64403,57611
6.6514,49562
6.65878,46700
6.66615,49781
6.67353,59828
6.6809,68084
6.68828,62099
6.69567,53871
6.70303,56172
6.71042,62920
6.71778,66118
6.72517,66599
6.73255,64423
6.73992,71922
6.7473,81324
6.75467,79063
6.76205,81442
6.76942,62438
6.7768,44036
6.78418,47854
6.79155,80677
6.79893,105897
6.8063,89923
6.81368,85807
6.82107,124222
6.82843,149982
6.83582,135629
6.84318,88597
6.85057,59633
6.85793,51679
6.86532,51074
6.8727,50024
6.88007,48529
6.88745,47579
6.89482,51686
6.9022,81488
6.90958,103704
6.91695,78792
6.92433,60372
6.9317,49144
6.93908,42273
6.94645,45633
6.95383,41455
6.96122,38637
6.96858,33935
6.97597,33835
6.98333,36839
6.99072,37352
6.9981,36655
7.00547,39133
7.01285,43845
7.02022,48380
7.0276,56534
7.03497,61725
7.04235,62365
7.04973,63419
7.0571,57195
7.06448,47414
7.07185,43367
7.07923,43342
7.08662,56654
7.09398,67921
7.10137,54921
7.10873,45740
7.11612,58120
7.12348,68964
7.13087,63530
7.13825,53893
7.14562,49561
7.153,52048
7.16037,55553
7.16775,50934
7.17513,41652
7.1825,37424
7.18988,39507
7.19725,49184
7.20463,83975
7.212,205229
7.21938,252329
7.22677,133966
7.23413,61893
7.24152,48638
7.24888,46886
7.25627,47933
7.26363,54918
7.27102,61461
7.2784,62698
7.28577,55226
7.29315,44514
7.30052,39875
7.3079,51536
7.31528,64426
7.32265,60909
7.33003,53475
7.3374,48216
7.34478,47578
7.35215,47607
7.35953,42822
7.36692,42086
7.37428,46892
7.38167,52003
7.38903,50934
7.39642,51481
7.4038,51849
7.41117,45449
7.41855,53140
7.42592,77066
7.4333,71883
7.44067,53570
7.44805,50212
7.45543,55407
7.4628,52107
7.47018,40841
7.47755,33625
7.48493,35553
7.49232,43673
7.49968,60618
7.50707,70754
7.51443,51591
7.52182,36432
7.52918,33962
7.53657,31178
7.54395,30066
7.55132,31841
7.5587,35675
7.56607,38367
7.57345,42432
7.58083,44370
7.5882,41250
7.59558,46423
7.60295,61834
7.61033,64398
7.6177,49976
7.62508,47191
7.63247,53220
7.63983,46803
7.64722,41710
7.65458,47375
7.66197,53865
7.66935,48485
7.67672,43904
7.6841,46726
7.69147,44044
7.69885,38259
7.70622,37280
7.7136,40791
7.72098,44155
7.72835,44976
7.73573,48083
7.7431,45310
7.75048,41771
7.75787,40788
7.76523,40720
7.77262,43317
7.77998,50535
7.78737,54876
7.79473,54266
7.80212,46902
7.8095,41816
7.81687,42491
7.82425,50135
7.83162,67994
7.839,71534
7.84637,56354
7.85375,44519
7.86113,45209
7.8685,65698
7.87588,83327
7.88325,67948
7.89063,47687
7.89802,48145
7.90538,47689
7.91277,39544
7.92013,32860
7.92752,31540
7.93488,37299
7.94227,58608
7.94965,77697
7.95702,66270
7.9644,53189
7.97177,45279
7.97915,39476
7.98653,39676
7.9939,44003
8.00128,47095
8.00865,44337
8.01603,41602
8.0234,37430
8.03078,36048
8.03817,35246
8.04553,34705
8.05292,36108
8.06028,34099
8.06767,32304
8.07505,31378
8.08242,30355
8.0898,31579
8.09717,33953
8.10455,37193
8.11192,41102
8.1193,39892
8.12668,40171
8.13405,51585
8.14143,65676
8.1488,66837
8.15618,54191
8.16357,47793
8.17093,43175
8.17832,43044
8.18568,45862
8.19307,51252
8.20043,56083
8.20782,53181
8.2152,51339
8.22257,78828
8.22995,251435
8.23732,448502
8.2447,285175
8.25208,99446
8.25945,55481
8.26683,51090
8.2742,48880
8.28158,49257
8.28895,50167
8.29633,50696
8.30372,53449
8.31108,58167
8.31847,58377
8.32583,52436
8.33322,46759
8.3406,50457
8.34797,56000
8.35535,59652
8.36272,69207
8.3701,127319
8.37747,182151
8.38485,125436
8.39223,71447
8.3996,55314
8.40698,55214
8.41435,61302
8.42173,60401
8.4291,56216
8.43648,55197
8.44387,53619
8.45123,68477
8.45862,84464
8.46598,73101
8.47337,55337
8.48075,45883
8.48812,40154
8.4955,43732
8.50287,56042
8.51025,63414
8.51762,66801
8.525,70575
8.53238,63162
8.53975,59500
8.54713,65749
8.5545,71647
8.56188,65764
8.56927,71579
8.57663,77263
8.58402,67120
8.59138,65370
8.59877,70981
8.60613,72568
8.61352,68016
8.6209,61419
8.62827,56962
8.63565,67128
8.64302,72484
8.6504,68244
8.65778,69461
8.66515,88191
8.67253,118538
8.6799,116719
8.68728,110461
8.69465,94014
8.70203,86838
8.70942,85235
8.71678,73599
8.72417,60496
8.73153,65677
8.73892,104285
8.7463,152666
8.75367,142095
8.76105,169427
8.76842,246493
8.7758,243189
8.78317,251515
8.79055,199831
8.79793,166955
8.8053,201860
8.81268,230817
8.82005,184811
8.82743,145678
8.83482,135840
8.84218,146618
8.84957,245348
8.85693,311615
8.86432,214192
8.87168,151386
8.87907,142653
8.88645,117010
8.89382,90686
8.9012,92020
8.90857,127786
8.91595,231839
8.92333,299684
8.9307,272377
8.93808,375044
8.94545,435949
8.95283,258115
8.9602,153469
8.96758,135261
8.97497,114770
8.98233,114977
8.98972,148441
8.99708,159220
9.00447,146066
9.01183,130988
9.01922,112087
9.0266,107338
9.03397,101893
9.04135,107314
9.04872,115293
9.0561,113468
9.06348,95056
9.07085,84906
9.07823,105133
9.0856,145959
9.09298,155863
9.10035,136692
9.10773,129627
9.11512,134986
9.12248,142113
9.12987,171037
9.13723,200735
9.14462,213405
9.152,197069
9.15937,170976
9.16675,171056
9.17412,206256
9.1815,367998
9.18887,1136761
9.19625,2064286
9.20363,1370620
9.211,438054
9.21838,211060
9.22575,183879
9.23313,176539
9.24052,188585
9.24788,218601
9.25527,238025
9.26263,215938
9.27002,188213
9.27738,182616
9.28477,206965
9.29215,256301
9.29952,287477
9.3069,276535
9.31427,219398
9.32165,198936
9.32903,207460
9.3364,209661
9.34378,247786
9.35115,285817
9.35853,312950
9.3659,387171
9.37328,336154
9.38067,211833
9.38803,166290
9.39542,185459
9.40278,201062
9.41017,193005
9.41755,182050
9.42492,152296
9.4323,134106
9.43967,160661
9.44705,222234
9.45442,251672
9.4618,249897
9.46918,231862
9.47655,237348
9.48393,290018
9.4913,310519
9.49868,254451
9.50607,253462
9.51343,282452
9.52082,292203
9.52818,286314
9.53557,240265
9.54293,201866
9.55032,228912
9.5577,280058
9.56507,292788
9.57245,265348
9.57982,244856
9.5872,212954
9.59457,195424
9.60195,203158
9.60933,194500
9.6167,195933
9.62408,227682
9.63145,283903
9.63883,345949
9.64622,494746
9.65358,685716
9.66097,635215
9.66833,383941
9.67572,307826
9.68308,397456
9.69047,400406
9.69785,299760
9.70522,268750
9.7126,292187
9.71997,364383
9.72735,526332
9.73473,583632
9.7421,445058
9.74948,312473
9.75685,266971
9.76423,353847
9.7716,617607
9.77898,700233
9.78637,455112
9.79373,349998
9.80112,319150
9.80848,287918
9.81587,272572
9.82325,275836
9.83062,412790
9.838,692913
9.84537,735471
9.85275,523766
9.86012,413989
9.8675,347603
9.87488,331947
9.88225,372926
9.88963,734354
9.897,1110286
9.90438,766086
9.91177,368550
9.91913,274464
9.92652,278529
9.93388,280859
9.94127,276423
9.94863,303604
9.95602,313054
9.9634,281929
9.97077,260690
9.97815,260194
9.98552,276621
9.9929,299653
10.0003,320961
10.0077,335373
10.015,340470
10.0224,324508
10.0298,335189
10.0372,340343
10.0445,337991
10.0519,360119
10.0593,412108
10.0667,437068
10.074,468757
10.0814,651867
10.0888,1593951
10.0962,3215392
10.1036,2957362
10.1109,1175012
10.1183,525555
10.1257,490536
10.1331,576765
10.1404,525480
10.1478,407619
10.1552,382153
10.1626,445019
10.1699,502393
10.1773,542789
10.1847,598123
10.1921,581897
10.1994,514275
10.2068,445159
10.2142,415170
10.2216,417348
10.229,482107
10.2363,558457
10.2437,495589
10.2511,375537
10.2585,341999
10.2658,339338
10.2732,332648
10.2806,383093
10.288,412828
10.2953,392324
10.3027,367603
10.3101,360718
10.3175,382108
10.3248,408786
10.3322,437622
10.3396,432368
10.347,400059
10.3543,375713
10.3617,367405
10.3691,378623
10.3765,390178
10.3839,436315
10.3912,508915
10.3986,499681
10.406,435504
10.4134,433496
10.4207,477052
10.4281,478636
10.4355,432901
10.4429,414139
10.4502,441355
10.4576,459784
10.465,437290
10.4724,427256
10.4797,480453
10.4871,502222
10.4945,498115
10.5019,551184
10.5093,631053
10.5166,681764
10.524,739026
10.5314,649709
10.5388,504914
10.5461,545505
10.5535,704635
10.5609,793994
10.5683,807863
10.5756,662330
10.583,523039
10.5904,525810
10.5978,671828
10.6051,672311
10.6125,486625
10.6199,527639
10.6273,955405
10.6347,1444472
10.642,1379457
10.6494,898431
10.6568,549606
10.6642,493321
10.6715,438802
10.6789,405743
10.6863,411829
10.6937,450687
10.701,647793
10.7084,798419
10.7158,610574
10.7232,431887
10.7305,416986
10.7379,438294
10.7453,442091
10.7527,417365
10.7601,408371
10.7674,413736
10.7748,410916
10.7822,404364
10.7896,479714
10.7969,559139
10.8043,510332
10.8117,426178
10.8191,381391
10.8264,430819
10.8338,550446
10.8412,517905
10.8486,419619
10.8559,363146
10.8633,355419
10.8707,378141
10.8781,426810
10.8854,522252
10.8928,567602
10.9002,495107
10.9076,454240
10.915,446232
10.9223,454183
10.9297,549151
10.9371,1163629
10.9445,2566439
10.9518,2808219
10.9592,1412256
10.9666,649639
10.974,500533
10.9813,464766
10.9887,485808
10.9961,524089
11.0035,525221
11.0108,547364
11.0182,616777
11.0256,609244
11.033,532499
11.0404,469291
11.0477,455929
11.0551,480906
11.0625,526716
11.0699,547563
11.0772,518182
11.0846,458477
11.092,403439
11.0994,389114
11.1067,394910
11.1141,391131
11.1215,419969
11.1289,440025
11.1362,456341
11.1436,422176
11.151,375693
11.1584,375474
11.1658,382413
11.1731,382563
11.1805,441869
11.1879,455574
11.1953,396636
11.2026,369209
11.21,365397
11.2174,351072
11.2248,376214
11.2321,395989
11.2395,365803
11.2469,339024
11.2543,314705
11.2616,297530
11.269,313409
11.2764,327168
11.2838,330457
11.2911,347966
11.2985,342831
11.3059,358972
11.3133,423448
11.3207,533449
11.328,570861
11.3354,546552
11.3428,533576
11.3502,487784
11.3575,434894
11.3649,464391
11.3723,527666
11.3797,486871
11.387,446500
11.3944,444399
11.4018,417822
11.4092,461722
11.4165,629663
11.4239,669207
11.4313,514461
11.4387,377279
11.4461,362584
11.4534,471610
11.4608,635103
11.4682,596028
11.4756,503634
11.4829,492774
11.4903,480309
11.4977,430560
11.5051,394844
11.5124,433928
11.5198,532237
11.5272,528211
11.5346,389640
11.5419,321828
11.5493,334593
11.5567,354647
11.5641,368698
11.5715,380947
11.5788,370414
11.5862,343789
11.5936,344739
11.601,360840
11.6083,325147
11.6157,303697
11.6231,317193
11.6305,314807
11.6378,315789
11.6452,320731
11.6526,322078
11.66,306196
11.6673,292559
11.6747,301449
11.6821,327677
11.6895,357812
11.6968,348963
11.7042,317526
11.7116,298648
11.719,299152
11.7264,306451
11.7337,382383
11.7411,793380
11.7485,1504842
11.7559,1471386
11.7632,705718
11.7706,393782
11.778,342443
11.7854,346769
11.7927,363159
11.8001,409975
11.8075,422345
11.8149,400707
11.8222,392818
11.8296,375360
11.837,346066
11.8444,351234
11.8518,337461
11.8591,327686
11.8665,335171
11.8739,324405
11.8813,291833
11.8886,294548
11.896,318916
11.9034,320915
11.9108,315002
11.9181,339846
11.9255,336827
11.9329,301811
11.9403,273163
11.9476,289447
11.955,293727
11.9624,288602
11.9698,279665
11.9772,286361
11.9845,295327
11.9919,280747
11.9993,266881
12.0067,267065
12.014,271421
12.0214,279780
12.0288,274856
12.0362,257576
12.0435,243740
12.0509,231696
12.0583,229873
12.0657,232621
12.073,247306
12.0804,254739
12.0878,284900
12.0952,363584
12.1025,398312
12.1099,370601
12.1173,398512
12.1247,493944
12.1321,503373
12.1394,414664
12.1468,350728
12.1542,327315
12.1616,282246
12.1689,255217
12.1763,255642
12.1837,262234
12.1911,297115
12.1984,321146
12.2058,295565
12.2132,269320
12.2206,283616
12.2279,317750
12.2353,423620
12.2427,436768
12.2501,314207
12.2575,246597
12.2648,247165
12.2722,251183
12.2796,264260
12.287,277188
12.2943,323526
12.3017,339406
12.3091,276247
12.3165,232929
12.3238,236782
12.3312,237778
12.3386,226074
12.346,216039
12.3533,223118
12.3607,225750
12.3681,216614
12.3755,203649
12.3829,210687
12.3902,224070
12.3976,234519
12.405,233532
12.4124,227922
12.4197,236649
12.4271,239405
12.4345,237374
12.4419,238293
12.4492,229048
12.4566,214699
12.464,207571
12.4714,218758
12.4787,224744
12.4861,227128
12.4935,250820
12.5009,408886
12.5083,802938
12.5156,862190
12.523,467909
12.5304,246111
12.5378,221803
12.5451,310060
12.5525,478825
12.5599,562761
12.5673,456369
12.5746,320277
12.582,276778
12.5894,267450
12.5968,254204
12.6041,234662
12.6115,240084
12.6189,237586
12.6263,220163
12.6336,203373
12.641,194364
12.6484,195166
12.6558,194816
12.6632,193602
12.6705,191487
12.6779,200130
12.6853,204259
12.6927,207708
12.7,201575
12.7074,192130
12.7148,183439
12.7222,188282
12.7295,194332
12.7369,191136
12.7443,177040
12.7517,172458
12.759,175666
12.7664,187084
12.7738,198879
12.7812,186225
12.7886,175226
12.7959,179195
12.8033,184671
12.8107,182075
12.8181,181591
12.8254,220096
12.8328,255719
12.8402,262554
12.8476,239046
12.8549,223917
12.8623,217194
12.8697,196742
12.8771,176499
12.8844,196569
12.8918,221471
12.8992,210452
12.9066,188076
12.914,168014
12.9213,161584
12.9287,193575
12.9361,221106
12.9435,196980
12.9508,168171
12.9582,164798
12.9656,188781
12.973,234424
12.9803,226510
12.9877,191316
12.9951,165325
13.0025,167840
13.0098,180464
13.0172,171427
13.0246,169073
13.032,202537
13.0393,210733
13.0467,170846
13.0541,151014
13.0615,143184
13.0689,154715
13.0762,152771
13.0836,149181
13.091,143128
13.0984,149666
13.1057,154621
13.1131,152305
13.1205,149479
13.1279,141879
13.1352,133534
13.1426,136888
13.15,137658
13.1574,143405
13.1647,137516
13.1721,137001
13.1795,138908
13.1869,138720
13.1943,140521
13.2016,136970
13.209,133361
13.2164,138177
13.2238,195178
13.2311,365843
13.2385,424503
13.2459,283038
13.2533,155093
13.2606,130576
13.268,136623
13.2754,137991
13.2828,137202
13.2901,147114
13.2975,179851
13.3049,235322
13.3123,265476
13.3197,217739
13.327,169293
13.3344,143013
13.3418,128277
13.3492,119873
13.3565,120812
13.3639,116954
13.3713,112383
13.3787,112948
13.386,114757
13.3934,115384
13.4008,115317
13.4082,112301
13.4155,106667
13.4229,110713
13.4303,109431
13.4377,112691
13.445,111580
13.4524,105443
13.4598,100616
13.4672,103286
13.4746,104909
13.4819,110287
13.4893,108844
13.4967,103918
13.5041,100599
13.5114,98918
13.5188,101826
13.5262,115036
13.5336,123876
13.5409,122469
13.5483,118225
13.5557,113103
13.5631,115312
13.5704,109056
13.5778,97018
13.5852,101142
13.5926,104702
13.6,101633
13.6073,94766
13.6147,93901
13.6221,95758
13.6295,97437
13.6368,102636
13.6442,106854
13.6516,97657
13.659,93806
13.6663,94615
13.6737,102965
13.6811,100888
13.6885,92553
13.6958,91401
13.7032,90388
13.7106,91555
13.718,86751
13.7254,87292
13.7327,102474
13.7401,113109
13.7475,101804
13.7549,84612
13.7622,82406
13.7696,81376
13.777,80716
13.7844,84123
13.7917,84249
13.7991,88678
13.8065,88525
13.8139,85040
13.8212,79702
13.8286,77581
13.836,77723
13.8434,76810
13.8507,75653
13.8581,74300
13.8655,76474
13.8729,82074
13.8803,88904
13.8876,86769
13.895,80130
13.9024,75355
13.9098,80576
13.9171,121736
13.9245,178506
13.9319,154828
13.9393,96396
13.9466,75011
13.954,72539
13.9614,70194
13.9688,70964
13.9761,68727
13.9835,70876
13.9909,70412
13.9983,73453
14.0057,71724
14.013,68529
14.0204,69015
14.0278,69642
14.0352,69443
14.0425,66432
14.0499,64158
14.0573,63238
14.0647,66676
14.072,67298
14.0794,64049
14.0868,61135
14.0942,59548
14.1015,59919
14.1089,59713
14.1163,58608
14.1237,56512
14.1311,57244
14.1384,59697
14.1458,58773
14.1532,59135
14.1606,58859
14.1679,59038
14.1753,59469
14.1827,60025
14.1901,63588
14.1974,63410
14.2048,63487
14.2122,62194
14.2196,59213
14.2269,58936
14.2343,59494
14.2417,56253
14.2491,55101
14.2565,55024
14.2638,57374
14.2712,54372
14.2786,51790
14.286,51762
14.2933,52558
14.3007,54556
14.3081,56392
14.3155,54163
14.3228,52681
14.3302,53973
14.3376,54503
14.345,52712
14.3523,50004
14.3597,50006
14.3671,50578
14.3745,49761
14.3818,50582
14.3892,54541
14.3966,54343
14.404,51224
14.4114,49071
14.4187,49077
14.4261,50602
14.4335,49131
14.4409,46499
14.4482,47711
14.4556,48838
14.463,47575
14.4704,46078
14.4777,47118
14.4851,47303
14.4925,45493
14.4999,46186
14.5072,46421
14.5146,45866
14.522,46038
14.5294,44851
14.5368,45596
14.5441,50085
14.5515,63973
14.5589,81543
14.5663,68949
14.5736,56612
14.581,50897
14.5884,50606
14.5958,49701
14.6031,48491
14.6105,49044
14.6179,46993
14.6253,46809
14.6326,47623
14.64,47099
14.6474,46863
14.6548,46351
14.6622,47260
14.6695,46625
14.6769,47872
14.6843,46610
14.6917,44105
14.699,43517
14.7064,43544
14.7138,42924
14.7212,42794
14.7285,41058
14.7359,40630
14.7433,40534
14.7507,40271
14.758,40643
14.7654,40843
14.7728,41235
14.7802,41335
14.7875,40154
14.7949,40022
14.8023,39179
14.8097,39691
14.8171,39114
14.8244,39254
14.8318,37657
14.8392,37788
14.8466,38157
14.8539,38421
14.8613,38167
14.8687,37952
14.8761,37724
14.8834,39482
14.8908,37500
14.8982,36564
14.9056,35891
14.9129,36960
14.9203,36514
14.9277,35686
14.9351,35460
14.9425,34835
14.9498,34946
14.9572,34783
14.9646,35756
14.972,35210
14.9793,35447
14.9867,35041
14.9941,35013
15.0015,33915
15.0088,33627
15.0162,33685
15.0236,33294
15.031,32637
15.0383,33713
15.0457,32900
15.0531,33951
15.0605,32007
15.0679,31725
15.0752,32086
15.0826,31914
15.09,31200
15.0974,32477
15.1047,35357
15.1121,40180
15.1195,38643
15.1269,33374
15.1342,31671
15.1416,32163
15.149,32932
15.1564,31832
15.1637,32498
15.1711,31941
15.1785,32995
15.1859,33066
15.1932,31892
15.2006,31802
15.208,32726
15.2154,30948
15.2228,32469
15.2301,31843
15.2375,31155
15.2449,31860
15.2523,31349
15.2596,30157
15.267,31320
15.2744,31249
15.2818,32188
15.2891,32700
15.2965,30647
15.3039,31404
15.3113,30623
15.3186,31730
15.326,31930
15.3334,32244
15.3408,31657
15.3482,31798
15.3555,31248
15.3629,32244
15.3703,33183
15.3777,33477
15.385,32021
15.3924,33421
15.3998,32561
15.4072,32335
15.4145,32367
15.4219,32636
15.4293,31906
15.4367,32694
15.444,32169
15.4514,32557
15.4588,31626
15.4662,30603
15.4736,30204
15.4809,30774
15.4883,30274
15.4957,30344
15.5031,30239
15.5104,30313
15.5178,30472
15.5252,31163
15.5326,31494
15.5399,32974
15.5473,33042
15.5547,32683
15.5621,32531
15.5694,31896
15.5768,32342
15.5842,32674
15.5916,33636
15.5989,35513
15.6063,36827
15.6137,36253
15.6211,34411
15.6285,33720
15.6358,34553
15.6432,34903
15.6506,34280
15.658,35676
15.6653,34888
15.6727,36365
15.6801,36172
15.6875,36795
15.6948,38292
15.7022,38752
15.7096,39269
15.717,41105
15.7243,41743
15.7317,43306
15.7391,44613
15.7465,45126
15.7539,45551
15.7612,48360
15.7686,54491
15.776,53978
15.7834,58472
15.7907,57792
15.7981,57581
15.8055,56971
15.8129,54842
15.8202,53061
15.8276,50412
15.835,48005
15.8424,47551
15.8497,48263
15.8571,48084
15.8645,50367
15.8719,49707
15.8793,49864
15.8866,50544
15.894,52288
15.9014,52335
15.9088,50602
15.9161,52317
15.9235,50705
15.9309,50376
15.9383,49785
15.9456,48219
15.953,45294
15.9604,41651
15.9678,41843
15.9751,40446
15.9825,37688
15.9899,38398
15.9973,38348
16.0047,37848
16.012,37979
16.0194,37216
16.0268,36469
16.0342,36339
16.0415,36656
16.0489,39081
16.0563,39164
16.0636,36641
16.071,35925
16.0784,35658
16.0858,35708
16.0932,35223
16.1005,34932
16.1079,35864
16.1153,35834
16.1227,36172
16.13,36539
16.1374,37014
16.1448,37532
16.1522,36099
16.1595,35113
16.1669,35406
16.1743,36758
16.1817,35593
16.1891,37125
16.1964,36145
16.2038,37342
16.2112,38008
16.2186,36827
16.2259,36032
16.2333,35817
16.2407,36118
16.2481,36359
16.2554,36384
16.2628,37640
16.2702,37245
16.2776,36320
16.2849,37369
16.2923,35951
16.2997,37213
16.3071,36552
16.3145,37419
16.3218,35918
16.3292,36255
16.3366,36337
16.344,36696
16.3513,36458
16.3587,36116
16.3661,37332
16.3735,37150
16.3808,37793
16.3882,39271
16.3956,38835
16.403,38594
16.4104,38475
16.4177,39823
16.4251,39315
16.4325,38834
16.4399,37982
16.4472,36891
16.4546,37820
16.462,35673
16.4693,37244
16.4767,38008
16.4841,38683
16.4915,39627
16.4989,38966
16.5062,39954
16.5136,39037
16.521,38699
16.5284,37901
16.5357,38390
16.5431,37629
16.5505,38661
16.5579,37422
16.5652,37345
16.5726,37481
16.58,37460
16.5874,39488
16.5948,40097
16.6021,39042
16.6095,39419
16.6169,38775
16.6243,38994
16.6316,39330
16.639,39421
16.6464,39641
16.6538,40007
16.6611,39748
16.6685,39137
16.6759,38699
16.6833,39768
16.6907,39275
16.698,38284
16.7054,38907
16.7128,38705
16.7202,37320
16.7275,37727
16.7349,38438
16.7423,38101
16.7496,38424
16.757,37509
16.7644,37514
16.7718,37471
16.7792,38782
16.7865,36461
16.7939,38391
16.8013,37172
16.8087,37395
16.8161,36838
16.8234,38786
16.8308,38599
16.8382,39065
16.8455,37716
16.8529,37755
16.8603,38699
16.8677,39130
16.8751,38316
16.8824,40871
16.8898,39800
16.8972,39540
16.9046,39908
16.9119,39268
16.9193,39291
16.9267,38999
16.9341,40972
16.9414,39765
16.9488,39965
16.9562,39806
16.9636,41167
16.9709,40697
16.9783,40703
16.9857,38942
16.9931,39438
17.0005,38813
17.0078,38491
17.0152,37650
17.0226,38178
17.0299,38088
17.0373,38643
17.0447,38111
17.0521,37929
17.0595,38366
17.0668,39393
17.0742,39436
17.0816,38707
17.089,38717
17.0964,38613
17.1037,38770
17.1111,39057
17.1185,39727
17.1259,39671
17.1332,39060
17.1406,39375
17.148,39095
17.1553,39886
17.1627,40747
17.1701,40917
17.1775,43480
17.1849,43706
17.1922,44652
17.1996,47927
17.207,49969
17.2144,51423
17.2218,55845
17.2291,55599
17.2365,56532
17.2439,57542
17.2512,58558
17.2586,55757
17.266,55181
17.2734,50907
17.2808,49773
17.2881,50692
17.2955,51502
17.3029,52065
17.3103,51537
17.3176,51378
17.325,52078
17.3324,51676
17.3398,53553
17.3471,51709
17.3545,52841
17.3619,52129
17.3693,51775
17.3767,50322
17.384,50063
17.3914,50001
17.3988,50183
17.4062,49527
17.4135,49852
17.4209,49649
17.4283,51150
17.4356,49437
17.443,50526
17.4504,49179
17.4578,50420
17.4652,49404
17.4725,48756
17.4799,50346
17.4873,51235
