D:\Data GC-MS\2019\STD\HPD\HS SOLER HASSAKA EREZ DLAKIM.D 14 Jan 19  11:43 am
Start of data points
1.29378,14560383
1.30053,14447290
1.30727,14239602
1.31402,14015856
1.32075,13735633
1.3275,13543027
1.33423,13403094
1.34098,13264755
1.34773,13141748
1.35447,12954298
1.36122,12736620
1.36795,12439431
1.3747,12018268
1.38143,11506686
1.38818,10855059
1.39492,10199375
1.40167,9454188
1.40842,8674574
1.41515,7982469
1.4219,7293529
1.42863,6720121
1.43538,6216088
1.44212,5738321
1.44887,5361626
1.45562,5021421
1.46235,4714235
1.4691,4413887
1.47583,4150504
1.48258,3854263
1.48932,3596381
1.51018,10869408
1.51757,10067787
1.52493,9250126
1.53232,8413859
1.53968,7682872
1.54707,7025235
1.55445,6370170
1.56182,5802639
1.5692,5263693
1.57657,4782630
1.58395,4385737
1.59133,3974457
1.5987,3614271
1.60608,3283798
1.61345,3009234
1.62083,2734751
1.6282,2471038
1.63558,2250276
1.64297,2043679
1.65033,1878204
1.65772,1698484
1.66508,1555723
1.67247,1419059
1.67985,1287347
1.68722,1168513
1.6946,1069926
1.70197,982876
1.70935,890480
1.71672,817783
1.7241,745309
1.73148,687646
1.73885,630910
1.74623,577233
1.7536,526425
1.76098,484101
1.76835,443283
1.77573,402053
1.78312,369593
1.79048,338275
1.79787,311849
1.80523,289930
1.81262,263331
1.82,241203
1.82737,225209
1.83475,205966
1.84212,193108
1.8495,175161
1.85687,162480
1.86425,153989
1.87163,137952
1.879,128915
1.88638,119954
1.89375,112862
1.90113,105733
1.90852,96601
1.91588,93492
1.92327,84841
1.93063,81035
1.93802,75150
1.94538,71278
1.95277,67998
1.96015,62846
1.96752,60296
1.9749,55762
1.98227,51892
1.98965,49250
1.99703,47378
2.0044,45493
2.01178,43306
2.01915,41708
2.02653,40368
2.0339,37477
2.04128,37340
2.04867,36841
2.05603,34616
2.06342,34212
2.07078,33415
2.07817,32866
2.08555,32027
2.09292,30668
2.1003,28803
2.10767,28128
2.11505,29429
2.12242,27859
2.1298,27000
2.13718,27699
2.14455,26872
2.15193,26612
2.1593,25805
2.16668,24820
2.17407,25295
2.18143,24686
2.18882,24080
2.19618,25526
2.20357,24183
2.21093,25389
2.21832,24492
2.2257,25284
2.23307,24009
2.24045,22712
2.24782,22528
2.2552,23042
2.26258,23576
2.26995,23194
2.27733,23269
2.2847,23707
2.29208,22621
2.29945,22594
2.30683,22415
2.31422,21761
2.32158,23087
2.32897,22107
2.33633,22376
2.34372,22560
2.3511,22579
2.35847,22763
2.36585,23289
2.37322,22776
2.3806,23137
2.38797,23106
2.39535,22444
2.40273,23573
2.4101,22938
2.41748,23422
2.42485,23080
2.43223,22221
2.4396,22423
2.44698,22826
2.45437,22528
2.46173,22629
2.46912,21905
2.47648,22631
2.48387,22119
2.49125,22918
2.49862,22837
2.506,23062
2.51337,21981
2.52075,21418
2.52812,22178
2.5355,21898
2.54288,21413
2.55025,21961
2.55763,22266
2.565,22571
2.57238,22037
2.57977,22426
2.58713,22659
2.59452,21807
2.60188,21894
2.60927,22019
2.61663,22002
2.62402,22193
2.6314,21429
2.63877,21462
2.64615,22739
2.65352,21807
2.6609,22148
2.66828,22863
2.67565,22893
2.68303,24147
2.6904,23461
2.69778,23045
2.70515,21882
2.71253,23477
2.71992,22749
2.72728,22043
2.73467,23454
2.74203,22607
2.74942,21348
2.7568,22119
2.76417,21698
2.77155,22017
2.77892,21110
2.7863,20159
2.79367,21122
2.80105,21511
2.80843,22084
2.8158,21042
2.82318,21891
2.83055,21256
2.83793,21128
2.84532,21771
2.85268,21715
2.86007,21056
2.86743,21698
2.87482,21531
2.88218,20787
2.88957,21149
2.89695,21920
2.90432,21821
2.9117,20856
2.91907,21954
2.92645,20474
2.93383,20160
2.9412,21338
2.94858,21132
2.95595,22479
2.96333,23140
2.9707,24482
2.97808,23300
2.98547,24692
2.99283,24379
3.00022,22625
3.00758,22736
3.01497,22561
3.02233,22746
3.02972,21793
3.0371,21447
3.04447,21747
3.05185,20604
3.05922,21664
3.0666,21935
3.07398,21898
3.08135,20782
3.08873,21204
3.0961,20238
3.10348,20982
3.11085,20633
3.11823,19846
3.12562,20686
3.13298,21879
3.14037,21356
3.14773,21920
3.15512,21698
3.1625,21637
3.16987,21236
3.17725,20402
3.18462,21393
3.192,20612
3.19937,20829
3.20675,21343
3.21413,21333
3.2215,22240
3.22888,21348
3.23625,21343
3.24363,21939
3.25102,20770
3.25838,21636
3.26577,21824
3.27313,20545
3.28052,21009
3.28788,20830
3.29527,21698
3.30265,20429
3.31002,20490
3.3174,20129
3.32477,21292
3.33215,22651
3.33953,21980
3.3469,22750
3.35428,21643
3.36165,22070
3.36903,21624
3.3764,23564
3.38378,27128
3.39117,30725
3.39853,31782
3.40592,32530
3.41328,32014
3.42067,32113
3.42805,29981
3.43542,28626
3.4428,25355
3.45017,23799
3.45755,24406
3.46492,25988
3.4723,27480
3.47968,29913
3.48705,28227
3.49443,28290
3.5018,25781
3.50918,24729
3.51657,23456
3.52393,22844
3.53132,21287
3.53868,22009
3.54607,21723
3.55343,21812
3.56082,21689
3.5682,22166
3.57557,26564
3.58295,29304
3.59032,28261
3.5977,29538
3.60507,29825
3.61245,28213
3.61983,24838
3.6272,24761
3.63458,24008
3.64195,23441
3.64933,22098
3.65672,22070
3.66408,22112
3.67147,22096
3.67883,23638
3.68622,23626
3.69358,23160
3.70097,24670
3.70835,25062
3.71572,26182
3.7231,27308
3.73047,24055
3.73785,23730
3.74523,22546
3.7526,22586
3.75998,21282
3.76735,21576
3.77473,29174
3.7821,48640
3.78948,64103
3.79687,64205
3.80423,55109
3.81162,50314
3.81898,45634
3.82637,39311
3.83375,35531
3.84112,30550
3.8485,27161
3.85587,25278
3.86325,23715
3.87062,21861
3.878,20674
3.88538,21061
3.89275,23917
3.90013,25570
3.9075,24000
3.91488,23348
3.92227,20647
3.92963,22116
3.93702,21026
3.94438,21624
3.95177,21667
3.95913,21799
3.96652,23729
3.9739,23752
3.98127,21904
3.98865,22142
3.99602,22159
4.0034,22210
4.01078,21100
4.01815,21545
4.02553,22468
4.0329,22182
4.04028,24461
4.04765,26153
4.05503,24762
4.06242,24251
4.06978,23633
4.07717,22082
4.08453,21813
4.09192,21152
4.0993,22889
4.10667,21343
4.11405,22859
4.12142,27037
4.1288,34543
4.13617,38278
4.14355,38067
4.15093,32720
4.1583,28750
4.16568,24676
4.17305,22899
4.18043,20966
4.1878,23654
4.19518,29352
4.20257,35715
4.20993,41152
4.21732,39531
4.22468,37587
4.23207,39828
4.23945,44563
4.24682,41749
4.2542,36335
4.26157,31103
4.26895,28207
4.27632,35974
4.2837,51077
4.29108,57312
4.29845,52532
4.30583,43842
4.3132,37216
4.32058,32054
4.32797,28959
4.33533,30420
4.34272,32728
4.35008,30667
4.35747,26147
4.36483,23922
4.37222,23428
4.3796,24147
4.38697,23433
4.39435,25891
4.40172,28579
4.4091,28684
4.41648,27132
4.42385,24562
4.43123,23169
4.4386,22295
4.44598,21349
4.45335,23445
4.46073,32892
4.46812,45507
4.47548,49119
4.48287,46860
4.49023,40387
4.49762,36106
4.505,32696
4.51237,29558
4.51975,26163
4.52712,28791
4.5345,33208
4.54187,45179
4.54925,58264
4.55663,59406
4.564,58968
4.57138,69192
4.57875,64145
4.58613,48194
4.59352,35305
4.60088,29105
4.60827,26559
4.61563,25682
4.62302,29362
4.63038,36867
4.63777,53233
4.64515,88885
4.65252,119110
4.6599,117655
4.66727,87350
4.67465,59781
4.68203,42200
4.6894,31489
4.69678,27592
4.70415,24982
4.71153,23167
4.7189,23754
4.72628,22483
4.73367,22090
4.74103,21565
4.74842,21140
4.75578,25409
4.76317,30291
4.77053,30282
4.77792,28436
4.7853,26173
4.79267,24009
4.80005,23106
4.80742,23211
4.8148,22745
4.82218,22121
4.82955,24760
4.83693,34338
4.8443,48814
4.85168,57383
4.85905,54909
4.86643,48492
4.87382,41287
4.88118,35223
4.88857,41604
4.89593,54999
4.90332,51892
4.9107,43595
4.91807,44861
4.92545,56661
4.93282,62881
4.9402,60594
4.94757,56255
4.95495,45218
4.96233,37173
4.9697,32066
4.97708,35600
4.98445,108529
4.99183,296544
4.99922,389115
5.00658,258086
5.01397,127970
5.02133,66192
5.02872,42835
5.03608,30624
5.04347,24656
5.05085,21511
5.05822,21320
5.0656,21552
5.07297,20101
5.08035,19266
5.08773,20113
5.0951,21434
5.10248,22212
5.10985,31069
5.11723,40067
5.1246,48114
5.13198,56615
5.13937,56229
5.14673,42399
5.15412,30321
5.16148,23814
5.16887,26789
5.17625,38168
5.18362,46159
5.191,53943
5.19837,49559
5.20575,37706
5.21312,31119
5.2205,31634
5.22788,30949
5.23525,31349
5.24263,30162
5.25,29045
5.25738,33633
5.26477,36183
5.27213,40832
5.27952,61430
5.28688,81836
5.29427,86757
5.30163,76680
5.30902,51295
5.3164,32912
5.32377,25311
5.33115,25588
5.33852,35862
5.3459,48928
5.35327,46066
5.36065,36051
5.36803,31834
5.3754,32748
5.38278,34755
5.39015,64083
5.39753,160353
5.40492,224555
5.41228,175385
5.41967,114630
5.42703,91563
5.43442,77599
5.44178,54279
5.44917,39550
5.45655,38990
5.46392,55012
5.4713,91763
5.47867,107474
5.48605,78074
5.49343,48489
5.5008,41045
5.50818,39215
5.51555,42742
5.52293,43780
5.5303,39479
5.53768,39872
5.54507,46293
5.55243,44437
5.55982,37350
5.56718,33061
5.57457,36603
5.58195,33872
5.58932,26915
5.5967,22434
5.60407,21129
5.61145,20749
5.61882,24903
5.6262,35997
5.63358,53683
5.64095,76454
5.64833,78186
5.6557,68455
5.66308,53718
5.67047,37961
5.67783,31761
5.68522,32646
5.69258,46700
5.69997,55292
5.70733,44631
5.71472,62944
5.7221,117433
5.72947,111305
5.73685,101786
5.74422,130267
5.7516,154611
5.75898,188819
5.76635,177123
5.77373,118349
5.7811,96754
5.78848,84175
5.79585,64652
5.80323,43642
5.81062,31163
5.81798,27780
5.82537,34578
5.83273,85727
5.84012,170619
5.8475,142301
5.85487,76746
5.86225,45016
5.86962,38486
5.877,33407
5.88437,30556
5.89175,32575
5.89913,33302
5.9065,40748
5.91388,51413
5.92125,44310
5.92863,38110
5.936,47463
5.94338,65541
5.95077,83715
5.95813,74907
5.96552,48562
5.97288,41902
5.98027,39200
5.98765,32992
5.99502,26590
6.0024,24951
6.00977,28966
6.01715,46066
6.02452,69037
6.0319,73024
6.03928,62491
6.04665,55828
6.05403,56952
6.0614,53530
6.06878,54940
6.07617,56278
6.08353,51517
6.09092,36576
6.09828,33202
6.10567,39295
6.11303,39517
6.12042,38210
6.1278,75039
6.13517,155369
6.14255,149165
6.14992,75209
6.1573,52563
6.16468,171558
6.17205,479473
6.17943,449796
6.1868,171298
6.19418,64900
6.20155,40049
6.20893,29725
6.21632,29854
6.22368,32169
6.23107,31026
6.23843,29346
6.24582,27988
6.2532,29812
6.26057,32581
6.26795,30052
6.27532,27925
6.2827,30289
6.29007,31530
6.29745,39164
6.30483,43342
6.3122,47281
6.31958,50506
6.32695,46441
6.33433,37691
6.34172,37567
6.34908,40568
6.35647,45782
6.36383,42320
6.37122,40543
6.37858,49756
6.38597,56452
6.39335,47962
6.40072,39569
6.4081,39355
6.41547,72008
6.42285,151807
6.43023,147386
6.4376,64447
6.44498,38397
6.45235,60015
6.45973,78324
6.4671,63742
6.47448,55716
6.48187,55626
6.48923,57512
6.49662,48242
6.50398,38093
6.51137,35356
6.51873,39043
6.52612,41601
6.5335,44171
6.54087,46680
6.54825,43358
6.55562,37917
6.563,41012
6.57038,50961
6.57775,47168
6.58513,49543
6.5925,74850
6.59988,78302
6.60725,75164
6.61463,90755
6.62202,78375
6.62938,49064
6.63677,38902
6.64413,42603
6.65152,44987
6.6589,40410
6.66627,31151
6.67365,26572
6.68102,26919
6.6884,28737
6.69577,33583
6.70315,37211
6.71053,33881
6.7179,32956
6.72528,39442
6.73265,46964
6.74003,52522
6.74742,49052
6.75478,53894
6.76217,62882
6.76953,60433
6.77692,64030
6.78428,61858
6.79167,48018
6.79905,55328
6.80642,78124
6.8138,67249
6.82117,40098
6.82855,40901
6.83593,59975
6.8433,91405
6.85068,89078
6.85805,52087
6.86543,36647
6.8728,34883
6.88018,38121
6.88757,57184
6.89493,88436
6.90232,75402
6.90968,47002
6.91707,46476
6.92445,52803
6.93182,73312
6.9392,78894
6.94657,72047
6.95395,57875
6.96132,75554
6.9687,89052
6.97608,59560
6.98345,44295
6.99083,47268
6.9982,45189
7.00558,36968
7.01297,30661
7.02033,34093
7.02772,38497
7.03508,38337
7.04247,39120
7.04983,41191
7.05722,43227
7.0646,37049
7.07197,36721
7.07935,45699
7.08672,52988
7.0941,44620
7.10147,34317
7.10885,34542
7.11623,38393
7.1236,42676
7.13098,42368
7.13835,42885
7.14573,46964
7.15312,61189
7.16048,61630
7.16787,54522
7.17523,47950
7.18262,42734
7.18998,46839
7.19737,42867
7.20475,36462
7.21212,36305
7.2195,36796
7.22687,44880
7.23425,48833
7.24163,44650
7.249,33796
7.25638,31035
7.26375,40223
7.27113,99280
7.2785,364152
7.28588,459208
7.29327,184586
7.30063,61223
7.30802,46874
7.31538,41733
7.32277,43776
7.33015,52709
7.33752,58216
7.3449,50590
7.35227,37304
7.35965,32468
7.36702,33331
7.3744,34956
7.38178,31067
7.38915,31315
7.39653,35200
7.4039,37464
7.41128,39084
7.41867,43644
7.42603,44431
7.43342,38820
7.44078,39940
7.44817,42235
7.45553,49339
7.46292,52722
7.4703,42633
7.47767,33995
7.48505,33370
7.49242,30641
7.4998,32980
7.50718,36891
7.51455,36444
7.52193,37312
7.5293,41056
7.53668,48190
7.54405,65982
7.55143,59441
7.55882,61432
7.56618,70147
7.57357,49363
7.58093,37086
7.58832,33066
7.5957,29980
7.60307,28955
7.61045,28859
7.61782,29102
7.6252,29540
7.63257,32029
7.63995,38510
7.64733,43128
7.6547,39717
7.66208,31064
7.66945,27135
7.67683,30925
7.68422,33235
7.69158,32326
7.69897,29536
7.70633,43752
7.71372,76360
7.72108,80974
7.72847,62600
7.73585,56870
7.74322,43352
7.7506,33696
7.75797,30259
7.76535,32164
7.77272,30824
7.7801,33578
7.78748,41483
7.79485,46300
7.80223,37611
7.8096,30038
7.81698,30245
7.82437,32149
7.83173,38803
7.83912,63360
7.84648,86866
7.85387,93784
7.86123,83720
7.86862,54775
7.876,42250
7.88337,40581
7.89075,48636
7.89812,86794
7.9055,91877
7.91288,52058
7.92025,38238
7.92763,37128
7.935,42140
7.94238,68221
7.94975,134802
7.95713,152434
7.96452,84500
7.97188,49086
7.97927,34561
7.98663,30964
7.99402,32359
8.0014,33492
8.00877,43808
8.01615,98970
8.02352,145682
8.0309,89194
8.03827,46246
8.04565,43858
8.05303,45835
8.0604,49104
8.06778,43012
8.07515,38969
8.08253,38096
8.08992,40129
8.09728,38534
8.10467,36452
8.11203,40672
8.11942,48329
8.12678,48772
8.13417,44674
8.14155,38775
8.14892,46383
8.1563,56429
8.16367,55356
8.17105,48581
8.17843,45688
8.1858,41772
8.19318,41082
8.20055,39891
8.20793,44042
8.2153,53675
8.22268,63736
8.23007,61562
8.23743,72257
8.24482,72155
8.25218,60358
8.25957,56422
8.26695,57862
8.27432,63793
8.2817,68753
8.28907,65175
8.29645,60769
8.30382,110830
8.3112,502359
8.31858,1115832
8.32595,721556
8.33333,172692
8.3407,63907
8.34808,59315
8.35545,66965
8.36283,61792
8.37022,50534
8.37758,50823
8.38497,48462
8.39233,42841
8.39972,48944
8.4071,49938
8.41447,51922
8.42185,52018
8.42922,46151
8.4366,79516
8.44397,170483
8.45135,172332
8.45873,89578
8.4661,57374
8.47348,45005
8.48085,46010
8.48823,53662
8.49562,50602
8.50298,45869
8.51037,45764
8.51773,50506
8.52512,61130
8.53248,56560
8.53987,49923
8.54725,41309
8.55462,37573
8.562,33975
8.56937,31883
8.57675,33539
8.58413,43857
8.5915,54169
8.59888,56447
8.60625,52032
8.61363,51190
8.621,51708
8.62838,43647
8.63577,40130
8.64313,43046
8.65052,49426
8.65788,54362
8.66527,46623
8.67265,37990
8.68002,39849
8.6874,44635
8.69477,42725
8.70215,48034
8.70952,55839
8.7169,54236
8.72428,59188
8.73165,54289
8.73903,42940
8.7464,37331
8.75378,36122
8.76117,43523
8.76853,74306
8.77592,97751
8.78328,77373
8.79067,49652
8.79803,40421
8.80542,36858
8.8128,46732
8.82017,67641
8.82755,69780
8.83492,59326
8.8423,76471
8.84968,90818
8.85705,125959
8.86443,204337
8.8718,309119
8.87918,305748
8.88655,198655
8.89393,151703
8.90132,109247
8.90868,84328
8.91607,76991
8.92343,71272
8.93082,77705
8.93818,106740
8.94557,140574
8.95295,108174
8.96032,78860
8.9677,64462
8.97507,59124
8.98245,62123
8.98983,70275
8.9972,78644
9.00458,105225
9.01195,137840
9.01933,116410
9.0267,78812
9.03408,61695
9.04147,62781
9.04883,70045
9.05622,67777
9.06358,62150
9.07097,65974
9.07835,79102
9.08572,79364
9.0931,69290
9.10047,59860
9.10785,56598
9.11522,54665
9.1226,60451
9.12998,58313
9.13735,53049
9.14473,45842
9.1521,53326
9.15948,56667
9.16687,59663
9.17423,65124
9.18162,63705
9.18898,57495
9.19637,65665
9.20373,71899
9.21112,75039
9.2185,77726
9.22587,87906
9.23325,96556
9.24062,95187
9.248,118119
9.25538,148640
9.26275,136571
9.27013,134240
9.2775,175481
9.28488,317025
9.29225,396348
9.29963,233487
9.30702,126335
9.31438,118174
9.32177,111195
9.32913,93983
9.33652,91437
9.3439,112574
9.35127,122970
9.35865,113550
9.36602,120302
9.3734,117564
9.38077,107647
9.38815,143884
9.39553,159487
9.4029,152307
9.41028,168700
9.41765,146171
9.42503,129481
9.43242,151675
9.43978,164488
9.44717,170517
9.45453,139853
9.46192,111482
9.46928,103915
9.47667,101836
9.48405,122979
9.49142,157280
9.4988,160343
9.50617,121902
9.51355,100771
9.52092,92353
9.5283,86206
9.53568,99056
9.54305,143178
9.55043,163078
9.5578,134064
9.56518,103736
9.57257,91707
9.57993,92999
9.58732,110808
9.59468,148086
9.60207,207170
9.60943,227503
9.61682,157786
9.6242,112081
9.63157,119632
9.63895,138258
9.64632,119067
9.6537,115312
9.66108,132581
9.66845,179302
9.67583,233146
9.6832,212157
9.69058,150349
9.69795,119026
9.70533,142330
9.71272,181202
9.72008,171434
9.72747,153344
9.73483,174712
9.74222,282075
9.7496,405294
9.75697,458071
9.76435,387827
9.77172,322315
9.7791,311009
9.78647,224690
9.79385,185517
9.80123,169628
9.8086,170552
9.81598,211610
9.82335,324826
9.83073,312645
9.83812,204807
9.84548,180798
9.85287,191249
9.86023,219179
9.86762,270199
9.87498,427941
9.88237,474895
9.88975,336581
9.89712,250623
9.9045,227158
9.91187,208298
9.91925,214849
9.92663,229501
9.934,328804
9.94138,478170
9.94875,426934
9.95613,342956
9.9635,309694
9.97088,235368
9.97827,244105
9.98563,332553
9.99302,330405
10.0004,290707
10.0078,325311
10.0152,381024
10.0225,338791
10.0299,277828
10.0373,266642
10.0447,230211
10.052,187095
10.0594,177446
10.0668,189903
10.0742,215269
10.0815,235628
10.0889,226984
10.0963,207527
10.1037,205751
10.111,271929
10.1184,322410
10.1258,324299
10.1332,322795
10.1405,305126
10.1479,304585
10.1553,321653
10.1627,311877
10.1701,324841
10.1774,315196
10.1848,332156
10.1922,550159
10.1996,1287786
10.2069,1637579
10.2143,931584
10.2217,546857
10.2291,494317
10.2364,381468
10.2438,348386
10.2512,332168
10.2586,277497
10.2659,346538
10.2733,533423
10.2807,595353
10.2881,525658
10.2955,512856
10.3028,493240
10.3102,417694
10.3176,389213
10.325,464346
10.3323,589053
10.3397,538017
10.3471,392134
10.3545,387521
10.3618,454133
10.3692,421682
10.3766,319245
10.384,344206
10.3913,442030
10.3987,442514
10.4061,402816
10.4135,376396
10.4209,349514
10.4282,317788
10.4356,329018
10.443,390748
10.4504,418260
10.4577,468284
10.4651,588114
10.4725,629237
10.4799,515518
10.4872,432683
10.4946,435289
10.502,499086
10.5094,497504
10.5167,464254
10.5241,433099
10.5315,372594
10.5389,358126
10.5462,352311
10.5536,393343
10.561,484960
10.5684,541137
10.5758,510257
10.5831,468398
10.5905,514286
10.5979,544266
10.6053,530479
10.6126,731887
10.62,914126
10.6274,1031205
10.6348,924326
10.6421,724675
10.6495,823734
10.6569,1010472
10.6643,867509
10.6716,729915
10.679,831628
10.6864,1009363
10.6938,1008238
10.7012,922990
10.7085,995951
10.7159,807040
10.7233,820530
10.7307,1000275
10.738,804256
10.7454,712933
10.7528,1049151
10.7602,1318765
10.7675,1057904
10.7749,799735
10.7823,639049
10.7897,563604
10.797,524151
10.8044,532649
10.8118,873107
10.8192,1347620
10.8266,1126854
10.8339,748787
10.8413,638418
10.8487,606400
10.8561,635037
10.8634,716472
10.8708,801956
10.8782,735674
10.8856,717727
10.8929,815173
10.9003,879282
10.9077,811993
10.9151,790949
10.9224,736252
10.9298,734355
10.9372,723838
10.9446,663943
10.9519,630765
10.9593,661935
10.9667,692832
10.9741,782458
10.9815,881475
10.9888,865703
10.9962,915639
11.0036,967218
11.011,816544
11.0183,760355
11.0257,883522
11.0331,967179
11.0405,935710
11.0478,1030890
11.0552,1656444
11.0626,3553051
11.07,5417824
11.0773,3102941
11.0847,1237532
11.0921,1308446
11.0995,1608453
11.1069,1403982
11.1142,1243771
11.1216,1398724
11.129,1511820
11.1364,1517581
11.1437,1345648
11.1511,1105659
11.1585,1179763
11.1659,1347883
11.1732,1377932
11.1806,1260309
11.188,1289467
11.1954,1339187
11.2027,1162301
11.2101,993341
11.2175,1034896
11.2249,1091845
11.2323,1140509
11.2396,1272194
11.247,1288654
11.2544,1041814
11.2618,876280
11.2691,837862
11.2765,833224
11.2839,1014806
11.2913,1310442
11.2986,1429879
11.306,1300991
11.3134,1110375
11.3208,1082941
11.3281,1085291
11.3355,946205
11.3429,937761
11.3503,1212902
11.3576,1303263
11.365,1043972
11.3724,820593
11.3798,806049
11.3872,898989
11.3945,954124
11.4019,935349
11.4093,1046982
11.4167,1161251
11.424,1191547
11.4314,1448010
11.4388,1823189
11.4462,2035925
11.4535,2059964
11.4609,2027787
11.4683,1676510
11.4757,1428290
11.483,1706282
11.4904,2165260
11.4978,1967906
11.5052,1441533
11.5126,1206524
11.5199,1205648
11.5273,1459224
11.5347,2051283
11.5421,2386210
11.5494,1870579
11.5568,1602274
11.5642,2049871
11.5716,1973698
11.5789,1891841
11.5863,2588274
11.5937,2708524
11.6011,1960957
11.6084,1557456
11.6158,1329840
11.6232,1186471
11.6306,1220502
11.638,1511542
11.6453,2126205
11.6527,2418950
11.6601,1649544
11.6675,1209518
11.6748,1252315
11.6822,1267773
11.6896,1321663
11.697,1299059
11.7043,1195880
11.7117,1142010
11.7191,1186731
11.7265,1337766
11.7338,1393044
11.7412,1269334
11.7486,1211983
11.756,1261380
11.7634,1269933
11.7707,1334435
11.7781,1425241
11.7855,1464773
11.7929,1522059
11.8002,1571233
11.8076,1594202
11.815,1540989
11.8224,1405891
11.8297,1320479
11.8371,1417306
11.8445,1514204
11.8519,1522423
11.8592,1543437
11.8666,1713535
11.874,2914234
11.8814,5550772
11.8887,5466577
11.8961,2432536
11.9035,1598587
11.9109,1339646
11.9183,1278696
11.9256,1673680
11.933,2407030
11.9404,2754523
11.9478,2351950
11.9551,1844348
11.9625,1842970
11.9699,1856316
11.9773,1666327
11.9846,1620626
11.992,1714751
11.9994,1573559
12.0068,1410422
12.0141,1483228
12.0215,1370719
12.0289,1215718
12.0363,1494174
12.0437,1784297
12.051,1671768
12.0584,1531743
12.0658,1552463
12.0732,1469117
12.0805,1282158
12.0879,1345992
12.0953,1531581
12.1027,1540588
12.11,1297099
12.1174,1123157
12.1248,1188802
12.1322,1307024
12.1395,1410760
12.1469,1567091
12.1543,1472572
12.1617,1231098
12.1691,1095505
12.1764,1049958
12.1838,1033035
12.1912,1059905
12.1986,1110008
12.2059,1183595
12.2133,1440908
12.2207,2045165
12.2281,2365028
12.2354,2200423
12.2428,2263695
12.2502,2246621
12.2576,1541700
12.2649,1306822
12.2723,1645043
12.2797,1874823
12.2871,1480605
12.2944,1130506
12.3018,1076341
12.3092,1217524
12.3166,1500098
12.324,1810194
12.3313,1691343
12.3387,1271017
12.3461,1135011
12.3535,1203201
12.3608,1444274
12.3682,1857620
12.3756,2136588
12.383,2039597
12.3903,2122959
12.3977,1698909
12.4051,1252016
12.4125,1113851
12.4198,1161671
12.4272,1505644
12.4346,1839963
12.442,1442325
12.4494,1130073
12.4567,1097112
12.4641,1089095
12.4715,1069265
12.4789,1100965
12.4862,1074109
12.4936,1013335
12.501,1016118
12.5084,1044793
12.5157,1070809
12.5231,1048810
12.5305,1047873
12.5379,1106280
12.5452,1166664
12.5526,1133461
12.56,1145490
12.5674,1129151
12.5748,1028588
12.5821,923296
12.5895,903998
12.5969,969288
12.6043,1039250
12.6116,1088279
12.619,1116658
12.6264,1143655
12.6338,1159455
12.6411,1587583
12.6485,3141262
12.6559,3900095
12.6633,2188678
12.6706,1269185
12.678,1313108
12.6854,1483386
12.6928,1422471
12.7001,1352230
12.7075,1373038
12.7149,1192939
12.7223,1170377
12.7297,1312898
12.737,1379770
12.7444,1281625
12.7518,1172952
12.7592,1147047
12.7665,1035503
12.7739,891991
12.7813,832723
12.7887,752977
12.796,851514
12.8034,1056029
12.8108,1135639
12.8182,957152
12.8255,824003
12.8329,783244
12.8403,836700
12.8477,956577
12.8551,1024858
12.8624,931553
12.8698,787589
12.8772,735776
12.8846,772035
12.8919,801483
12.8993,852844
12.9067,891479
12.9141,816962
12.9214,783215
12.9288,721035
12.9362,674129
12.9436,744979
12.9509,842935
12.9583,1078390
12.9657,1349787
12.9731,1361409
12.9805,1154743
12.9878,923903
12.9952,936904
13.0026,839573
13.01,765288
13.0173,879018
13.0247,1039049
13.0321,982640
13.0395,793437
13.0468,672528
13.0542,653848
13.0616,742324
13.069,1016700
13.0763,1098166
13.0837,882334
13.0911,712439
13.0985,656219
13.1058,706511
13.1132,1000744
13.1206,1153498
13.128,971413
13.1354,778479
13.1427,678060
13.1501,636318
13.1575,744378
13.1649,1006563
13.1722,1161250
13.1796,1028439
13.187,767679
13.1944,674601
13.2017,697972
13.2091,688842
13.2165,707776
13.2239,694894
13.2312,646231
13.2386,652345
13.246,672358
13.2534,679712
13.2608,662769
13.2681,660269
13.2755,654429
13.2829,619642
13.2903,579456
13.2976,580239
13.305,586936
13.3124,569046
13.3198,557387
13.3271,606999
13.3345,653129
13.3419,653489
13.3493,599915
13.3566,568042
13.364,588759
13.3714,801645
13.3788,1525749
13.3862,1954039
13.3935,1185870
13.4009,648758
13.4083,633143
13.4157,677322
13.423,759125
13.4304,836627
13.4378,788117
13.4452,666319
13.4525,631353
13.4599,628710
13.4673,608300
13.4747,585905
13.482,639644
13.4894,665847
13.4968,567095
13.5042,544083
13.5116,595345
13.5189,584303
13.5263,544269
13.5337,505551
13.5411,474588
13.5484,437491
13.5558,452995
13.5632,496223
13.5706,483755
13.5779,441948
13.5853,463187
13.5927,471257
13.6001,476896
13.6074,519619
13.6148,526849
13.6222,474057
13.6296,430654
13.6369,428777
13.6443,407183
13.6517,400556
13.6591,454233
13.6665,565732
13.6738,645794
13.6812,632800
13.6886,593283
13.696,568588
13.7033,551993
13.7107,521520
13.7181,429914
13.7255,406874
13.7328,457387
13.7402,504630
13.7476,443458
13.755,373742
13.7623,363620
13.7697,377587
13.7771,435829
13.7845,491934
13.7919,455140
13.7992,371440
13.8066,352706
13.814,344969
13.8214,414534
13.8287,471275
13.8361,419279
13.8435,380575
13.8509,362522
13.8582,347839
13.8656,360529
13.873,363801
13.8804,427436
13.8877,461639
13.8951,419406
13.9025,425906
13.9099,425904
13.9173,364713
13.9246,334166
13.932,342335
13.9394,338357
13.9468,347766
13.9541,333120
13.9615,326034
13.9689,337381
13.9763,334843
13.9836,314508
13.991,297086
13.9984,307818
14.0058,328025
14.0131,313375
14.0205,303780
14.0279,306682
14.0353,292822
14.0426,292161
14.05,283042
14.0574,275084
14.0648,313682
14.0722,537948
14.0795,793401
14.0869,627626
14.0943,382994
14.1017,327379
14.109,296587
14.1164,284590
14.1238,279154
14.1312,288777
14.1385,300683
14.1459,319701
14.1533,305550
14.1607,284484
14.168,272059
14.1754,253221
14.1828,259156
14.1902,282576
14.1976,298055
14.2049,279158
14.2123,259247
14.2197,258615
14.2271,248204
14.2344,232894
14.2418,232868
14.2492,219014
14.2566,215397
14.2639,213193
14.2713,217819
14.2787,208303
14.2861,204013
14.2934,206430
14.3008,220335
14.3082,228927
14.3156,224315
14.323,219812
14.3303,247088
14.3377,271337
14.3451,271975
14.3525,252660
14.3598,249636
14.3672,238690
14.3746,222901
14.382,209641
14.3893,200353
14.3967,218967
14.4041,228682
14.4115,201952
14.4188,176362
14.4262,177718
14.4336,183954
14.441,198956
14.4483,212283
14.4557,197008
14.4631,174229
14.4705,164994
14.4779,183313
14.4852,202868
14.4926,185598
14.5,172307
14.5074,168795
14.5147,160762
14.5221,155237
14.5295,166493
14.5369,199058
14.5442,201728
14.5516,171187
14.559,153723
14.5664,153863
14.5737,165709
14.5811,182850
14.5885,180318
14.5959,158246
14.6033,158629
14.6106,157456
14.618,150310
14.6254,152440
14.6328,148703
14.6401,138168
14.6475,139990
14.6549,143983
14.6623,139917
14.6696,141308
14.677,139244
14.6844,134416
14.6918,131771
14.6991,188271
14.7065,266484
14.7139,222650
14.7213,157961
14.7287,138621
14.736,132425
14.7434,133565
14.7508,127194
14.7582,126256
14.7655,127543
14.7729,129885
14.7803,126872
14.7877,126808
14.795,121760
14.8024,120583
14.8098,117706
14.8172,115940
14.8245,121005
14.8319,117090
14.8393,112706
14.8467,114567
14.854,109751
14.8614,105739
14.8688,104514
14.8762,104789
14.8836,101448
14.8909,106549
14.8983,105399
14.9057,103578
14.9131,101718
14.9204,110952
14.9278,124962
14.9352,118465
14.9426,108376
14.9499,107679
14.9573,104627
14.9647,105726
14.9721,99129
14.9794,96998
14.9868,97634
14.9942,99611
15.0016,95917
15.009,107396
15.0163,105177
15.0237,100744
15.0311,97866
15.0385,96502
15.0458,90129
15.0532,89177
15.0606,94486
15.068,95787
15.0753,89429
15.0827,86612
15.0901,85248
15.0975,85982
15.1048,90621
15.1122,94339
15.1196,90528
15.127,85856
15.1344,87235
15.1417,82779
15.1491,81389
15.1565,82033
15.1639,83312
15.1712,90401
15.1786,86318
15.186,83902
15.1934,78351
15.2007,75908
15.2081,78723
15.2155,76959
15.2229,79875
15.2302,76587
15.2376,76034
15.245,82750
15.2524,105275
15.2598,129756
15.2671,120961
15.2745,110218
15.2819,102837
15.2893,98020
15.2966,95427
15.304,90203
15.3114,84213
15.3188,79331
15.3261,76603
15.3335,75134
15.3409,72482
15.3483,69364
15.3556,66676
15.363,69399
15.3704,70453
15.3778,74116
15.3851,72308
15.3925,70747
15.3999,70389
15.4073,67884
15.4147,68766
15.422,68490
15.4294,68086
15.4368,65372
15.4442,70089
15.4515,68755
15.4589,67544
15.4663,65260
15.4737,68169
15.481,67109
15.4884,65021
15.4958,62434
15.5032,64608
15.5105,67178
15.5179,65168
15.5253,66142
15.5327,65212
15.5401,67101
15.5474,65861
15.5548,65251
15.5622,64113
15.5696,64158
15.5769,65310
15.5843,63645
15.5917,67630
15.5991,67058
15.6064,69070
15.6138,69012
15.6212,66700
15.6286,64309
15.6359,64539
15.6433,64726
15.6507,65154
15.6581,64607
15.6655,64427
15.6728,61842
15.6802,63494
15.6876,69001
15.695,68794
15.7023,63295
15.7097,64787
15.7171,63851
15.7245,63140
15.7318,63923
15.7392,67974
15.7466,65421
15.754,65296
15.7613,61960
15.7687,59220
15.7761,59940
15.7835,60533
15.7908,61286
15.7982,61546
15.8056,61577
15.813,56995
15.8204,59176
15.8277,57091
15.8351,58930
15.8425,59366
15.8499,56642
15.8572,55387
15.8646,55006
15.872,54859
15.8794,55394
15.8867,56833
15.8941,58735
15.9015,58028
15.9089,59125
15.9162,61673
15.9236,60195
15.931,63954
15.9384,60727
15.9458,62742
15.9531,64708
15.9605,64608
15.9679,64960
15.9753,67537
15.9826,71947
15.99,72208
15.9974,74581
16.0048,71574
16.0121,68779
16.0195,70052
16.0269,71421
16.0343,71962
16.0416,68436
16.049,64114
16.0564,62345
16.0638,59349
16.0711,60950
16.0785,60989
16.0859,60172
16.0933,63438
16.1007,65740
16.108,65685
16.1154,70291
16.1228,71081
16.1302,67578
16.1375,66054
16.1449,65008
16.1523,63471
16.1597,60460
16.167,62135
16.1744,60421
16.1818,60191
16.1892,60353
16.1965,60836
16.2039,57204
16.2113,55833
16.2187,55066
16.2261,55129
16.2334,56009
16.2408,56486
16.2482,57108
16.2555,56189
16.2629,57251
16.2703,55425
16.2777,57613
16.285,57332
16.2924,55422
16.2998,55692
16.3072,55517
16.3146,57206
16.3219,61366
16.3293,73305
16.3367,83540
16.3441,87456
16.3515,81590
16.3588,69046
16.3662,65722
16.3736,58766
16.3809,59921
16.3883,58321
16.3957,60465
16.4031,60541
16.4105,61763
16.4178,60135
16.4252,60476
16.4326,65488
16.44,61669
16.4473,61989
16.4547,58501
16.4621,59426
16.4695,60226
16.4768,60812
16.4842,60373
16.4916,60729
16.499,59262
16.5064,59362
16.5137,57891
16.5211,55560
16.5285,55196
16.5359,56664
16.5432,56748
16.5506,55549
16.558,58160
16.5654,58602
16.5727,60223
16.5801,61287
16.5875,59084
16.5949,62240
16.6022,61487
16.6096,59560
16.617,59867
16.6244,60127
16.6318,56607
16.6391,57390
16.6465,58047
16.6539,55941
16.6612,56839
16.6686,52439
16.676,50981
16.6834,52748
16.6908,52480
16.6981,54010
16.7055,50749
16.7129,53328
16.7203,52856
16.7276,55509
16.735,53462
16.7424,56400
16.7498,57387
16.7571,58486
16.7645,58233
16.7719,56248
16.7793,60891
16.7867,59830
16.794,58946
16.8014,57856
16.8088,57966
16.8162,60881
16.8235,65586
16.8309,67129
16.8383,70110
16.8457,73544
16.853,73129
16.8604,71713
16.8678,68283
16.8752,67357
16.8825,66800
16.8899,61370
16.8973,59512
16.9047,59801
16.9121,59856
16.9194,59966
16.9268,61511
16.9342,58723
16.9415,58604
16.9489,58786
16.9563,58642
16.9637,61100
16.9711,59626
16.9784,59936
16.9858,61327
16.9932,62514
17.0006,60712
17.008,59404
17.0153,59064
17.0227,57096
17.0301,52726
17.0375,53396
17.0448,53941
17.0522,54144
17.0596,54061
17.0669,54108
17.0743,53872
17.0817,53977
17.0891,55862
17.0965,54960
17.1038,57876
17.1112,60038
17.1186,61685
17.126,57364
17.1333,57448
17.1407,56700
17.1481,58669
17.1555,57178
17.1628,55993
17.1702,54778
17.1776,56112
17.185,53474
17.1924,53915
17.1997,51445
17.2071,52651
17.2145,50955
17.2219,50623
17.2292,49987
17.2366,51436
17.244,46645
17.2514,46126
17.2587,47108
17.2661,46136
17.2735,46779
17.2809,44192
17.2883,45648
17.2956,43687
17.303,45562
17.3104,46334
17.3178,45595
17.3251,47844
17.3325,47763
17.3399,50669
17.3472,50154
17.3546,52996
17.362,51611
17.3694,53662
17.3768,55326
17.3841,57861
17.3915,64024
17.3989,68469
17.4063,73559
17.4137,71933
17.421,69093
17.4284,65061
17.4358,59173
17.4431,57871
17.4505,55043
17.4579,55578
17.4653,52804
17.4727,53747
17.48,50849
17.4874,47330
