D:\Data GC-MS\2018\STD 2018\SOLER\SOLER 11 NOT EVP GS.D 30 Jan 18  08:50 am
Start of data points
1.29392,5387850
1.30067,5331285
1.3074,5368508
1.31415,5238027
1.32088,5114521
1.32763,4967406
1.33437,4798542
1.34112,4656726
1.34787,4474669
1.3546,4281403
1.36135,4141129
1.36808,4016577
1.37483,3908274
1.38157,3814184
1.38832,3730418
1.39507,3651695
1.4018,3558995
1.40855,3465832
1.41528,3377465
1.42203,3266026
1.42877,3161040
1.43552,3045119
1.44227,2927206
1.449,2778852
1.45575,2643961
1.46248,2501988
1.46923,2385863
1.47597,2317987
1.48272,2242678
1.48945,2176243
1.51032,6921972
1.5177,6653692
1.52507,6421111
1.53245,6157909
1.53983,5935365
1.5472,5714172
1.55458,5527794
1.56195,5340340
1.56933,5144205
1.5767,5012779
1.58408,4821945
1.59147,4677095
1.59883,4506422
1.60622,4358546
1.61358,4178491
1.62097,4045693
1.62835,3881580
1.63572,3751619
1.6431,3595234
1.65047,3437901
1.65785,3286657
1.66522,3124112
1.6726,2982416
1.67998,2823529
1.68735,2678849
1.69473,2544505
1.7021,2382699
1.70948,2258184
1.71687,2112806
1.72423,1982273
1.73162,1867113
1.73898,1744430
1.74637,1632423
1.75373,1525649
1.76112,1430441
1.7685,1322381
1.77587,1235571
1.78325,1143190
1.79062,1066713
1.798,992201
1.80538,923937
1.81275,856461
1.82013,793924
1.8275,741870
1.83488,685960
1.84225,635018
1.84963,587721
1.85702,545178
1.86438,507710
1.87177,471860
1.87913,437619
1.88652,405640
1.89388,376890
1.90127,351561
1.90865,322670
1.91602,305218
1.9234,280523
1.93077,265166
1.93815,244864
1.94553,230079
1.9529,215841
1.96028,202208
1.96765,190850
1.97503,177746
1.9824,166441
1.98978,155316
1.99717,145247
2.00453,136751
2.01192,126746
2.01928,120540
2.02667,114336
2.03405,106936
2.04142,100635
2.0488,95691
2.05617,89467
2.06355,86705
2.07092,82955
2.0783,78260
2.08568,74062
2.09305,71655
2.10043,68515
2.1078,65774
2.11518,61386
2.12257,60494
2.12993,57411
2.13732,56110
2.14468,60124
2.15207,62696
2.15943,61554
2.16682,59365
2.1742,56950
2.18157,55049
2.18895,52462
2.19632,50645
2.2037,48994
2.21108,47034
2.21845,46420
2.22583,45124
2.2332,42909
2.24058,41619
2.24795,41337
2.25533,39780
2.26272,39728
2.27008,37652
2.27747,38198
2.28483,36330
2.29222,35556
2.2996,34527
2.30697,33594
2.31435,33687
2.32172,33743
2.3291,32715
2.33647,33562
2.34385,33551
2.35123,32745
2.3586,32502
2.36598,32761
2.37335,32837
2.38073,32119
2.38812,32332
2.39548,32240
2.40287,37308
2.41023,42984
2.41762,53316
2.42498,60475
2.43237,60061
2.43975,58872
2.44712,60451
2.4545,58367
2.46187,56616
2.46925,54095
2.47662,51264
2.484,51281
2.49138,57658
2.49875,69164
2.50613,70483
2.5135,67680
2.52088,63251
2.52827,61801
2.53563,56980
2.54302,54302
2.55038,50948
2.55777,47763
2.56513,46602
2.57252,48592
2.5799,56913
2.58727,60194
2.59465,59295
2.60202,62132
2.6094,66819
2.61678,66156
2.62415,66935
2.63153,71745
2.6389,72379
2.64628,69620
2.65365,65821
2.66103,60933
2.66842,58649
2.67578,56704
2.68317,53224
2.69053,49898
2.69792,48264
2.7053,49974
2.71267,64059
2.72005,75930
2.72742,74294
2.7348,70465
2.74217,64382
2.74955,61728
2.75693,56289
2.7643,54447
2.77168,50343
2.77905,49269
2.78643,45728
2.79382,43921
2.80118,41010
2.80857,39409
2.81593,37570
2.82332,36259
2.83068,34074
2.83807,32906
2.84545,32027
2.85282,31072
2.8602,30180
2.86757,29946
2.87495,29926
2.88233,29369
2.8897,28651
2.89708,29549
2.90445,29355
2.91183,28953
2.9192,29360
2.92658,30010
2.93397,30382
2.94133,34510
2.94872,50353
2.95608,104110
2.96347,184006
2.97085,216588
2.97822,203996
2.9856,188200
2.99297,172207
3.00035,154673
3.00772,140862
3.0151,132387
3.02248,123290
3.02985,116820
3.03723,108207
3.0446,106589
3.05198,101200
3.05935,89949
3.06673,89639
3.07412,102644
3.08148,107155
3.08887,97606
3.09623,89676
3.10362,80822
3.111,74167
3.11837,67441
3.12575,72850
3.13312,85552
3.1405,88445
3.14787,81447
3.15525,74519
3.16263,68656
3.17,61816
3.17738,56339
3.18475,52074
3.19213,47755
3.19952,45295
3.20688,47760
3.21427,55945
3.22163,59117
3.22902,57563
3.23638,53984
3.24377,50145
3.25115,46910
3.25852,43668
3.2659,40785
3.27327,40016
3.28065,37885
3.28803,35589
3.2954,34078
3.30278,32764
3.31015,30939
3.31753,29714
3.3249,29862
3.33228,32952
3.33967,39762
3.34703,44811
3.35442,46070
3.36178,46503
3.36917,44315
3.37655,43593
3.38392,51062
3.3913,93388
3.39867,150238
3.40605,167916
3.41342,170634
3.4208,172589
3.42818,165902
3.43555,174855
3.44293,183856
3.4503,175768
3.45768,155836
3.46507,134719
3.47243,121778
3.47982,139718
3.48718,175565
3.49457,186596
3.50193,182543
3.50932,177599
3.5167,166044
3.52407,143701
3.53145,123681
3.53882,109245
3.5462,127849
3.55358,210553
3.56095,283487
3.56833,304272
3.5757,311633
3.58308,290704
3.59045,256791
3.59783,223990
3.60522,189614
3.61258,161940
3.61997,134780
3.62733,109243
3.63472,88936
3.64208,77439
3.64947,78168
3.65685,88556
3.66422,113413
3.6716,135634
3.67897,133744
3.68635,134938
3.69373,151822
3.7011,167435
3.70848,185995
3.71585,186137
3.72323,167710
3.7306,144430
3.73798,123974
3.74537,110041
3.75273,97654
3.76012,83589
3.76748,77115
3.77487,123572
3.78225,300898
3.78962,507474
3.797,550116
3.80437,506171
3.81175,438250
3.81912,367359
3.8265,301163
3.83388,249490
3.84125,197692
3.84863,151516
3.856,124981
3.86338,151357
3.87077,219008
3.87813,246997
3.88552,221295
3.89288,184967
3.90027,159966
3.90763,141339
3.91502,125501
3.9224,109121
3.92977,94743
3.93715,85379
3.94452,80524
3.9519,74262
3.95928,69237
3.96665,65409
3.97403,60839
3.9814,57761
3.98878,56871
3.99615,56876
4.00353,58215
4.01092,55585
4.01828,49103
4.02567,44319
4.03303,40548
4.04042,46038
4.0478,69069
4.05517,87075
4.06255,100401
4.06992,107915
4.0773,103573
4.08467,92770
4.09205,80287
4.09943,74857
4.1068,75686
4.11418,95959
4.12155,154330
4.12893,214068
4.13632,214069
4.14368,199316
4.15107,209025
4.15843,221880
4.16582,209923
4.17318,208333
4.18057,228550
4.18795,241989
4.19532,280291
4.2027,435995
4.21007,597561
4.21745,602175
4.22482,516936
4.2322,433219
4.23958,415745
4.24695,451637
4.25433,425828
4.2617,352779
4.26908,295602
4.27647,268181
4.28383,237459
4.29122,208857
4.29858,186209
4.30597,181907
4.31333,181985
4.32072,162433
4.3281,131432
4.33547,104200
4.34285,86103
4.35022,80032
4.3576,79245
4.36498,81347
4.37235,94496
4.37973,122033
4.3871,131541
4.39448,115963
4.40185,99295
4.40923,106389
4.41662,176628
4.42398,259281
4.43137,266247
4.43873,234176
4.44612,204300
4.4535,221197
4.46087,271948
4.46825,281969
4.47562,256507
4.483,218212
4.49037,186534
4.49775,159588
4.50513,144045
4.5125,128955
4.51988,110476
4.52725,91121
4.53463,125316
4.54202,280114
4.54938,497772
4.55677,617250
4.56413,583587
4.57152,468682
4.57888,346555
4.58627,246438
4.59365,159556
4.60102,101223
4.6084,76370
4.61577,75105
4.62315,141791
4.63053,407819
4.6379,846004
4.64528,1030268
4.65265,910734
4.66003,703298
4.6674,505556
4.67478,339079
4.68217,225145
4.68953,166527
4.69692,156089
4.70428,178774
4.71167,213137
4.71905,244450
4.72642,242322
4.7338,200704
4.74117,158732
4.74855,150649
4.75592,173415
4.7633,184899
4.77068,161404
4.77805,133065
4.78543,149856
4.7928,197077
4.80018,218226
4.80755,231404
4.81493,281331
4.82232,313262
4.82968,303223
4.83707,289138
4.84443,328645
4.85182,412796
4.8592,423891
4.86657,370289
4.87395,346136
4.88132,318425
4.8887,248105
4.89607,199529
4.90345,174163
4.91083,178944
4.9182,254864
4.92558,356995
4.93295,362971
4.94033,284181
4.94772,204099
4.95508,212711
4.96247,575023
4.96983,1201347
4.97722,1378264
4.98458,1068434
4.99197,696550
4.99935,404047
5.00672,205457
5.0141,116984
5.02147,72273
5.02885,51234
5.03623,54760
5.0436,96977
5.05098,156516
5.05835,190816
5.06573,205771
5.0731,238212
5.08048,349172
5.08787,441090
5.09523,393376
5.10262,289257
5.10998,224247
5.11737,214687
5.12475,220855
5.13212,197072
5.1395,152132
5.14687,106425
5.15425,92711
5.16162,103795
5.169,125721
5.17638,170882
5.18375,226041
5.19113,216780
5.1985,173965
5.20588,124474
5.21327,103365
5.22063,101829
5.22802,113556
5.23538,184569
5.24277,302702
5.25013,367977
5.25752,392493
5.2649,395631
5.27227,354070
5.27965,263433
5.28702,165539
5.2944,124341
5.30178,140301
5.30915,211200
5.31653,279790
5.3239,299018
5.33128,293151
5.33865,277566
5.34603,334182
5.35342,543184
5.36078,817302
5.36817,1090768
5.37553,1113896
5.38292,851152
5.3903,648163
5.39767,548867
5.40505,415817
5.41242,296426
5.4198,205515
5.42717,159503
5.43455,181361
5.44193,250778
5.4493,308944
5.45668,423859
5.46405,623443
5.47143,647440
5.4788,497281
5.48618,389723
5.49357,341933
5.50093,301101
5.50832,252237
5.51568,247417
5.52307,259145
5.53045,265071
5.53782,247886
5.5452,186719
5.55257,160035
5.55995,185481
5.56732,229709
5.5747,247870
5.58208,228326
5.58945,173832
5.59683,145346
5.6042,233585
5.61158,435202
5.61897,613880
5.62633,618872
5.63372,489513
5.64108,361263
5.64847,250071
5.65583,169097
5.66322,228023
5.6706,530773
5.67797,827562
5.68535,1038236
5.69272,1300867
5.7001,1303694
5.70748,954353
5.71485,1000372
5.72223,1562478
5.7296,1877943
5.73698,1413681
5.74435,877257
5.75173,602937
5.75912,472801
5.76648,399452
5.77387,333138
5.78123,257956
5.78862,314490
5.796,817605
5.80337,1569816
5.81075,1625169
5.81812,1015912
5.8255,459899
5.83287,221140
5.84025,219962
5.84763,335154
5.855,512990
5.86238,652566
5.86975,639115
5.87713,558582
5.88452,559923
5.89188,587779
5.89927,533501
5.90663,384374
5.91402,289111
5.92138,258621
5.92877,280785
5.93615,296699
5.94352,323911
5.9509,357217
5.95827,375820
5.96565,596416
5.97303,974887
5.9804,1111732
5.98778,954973
5.99515,759872
6.00253,806071
6.0099,877547
6.01728,800028
6.02467,626811
6.03203,463600
6.03942,438409
6.04678,546315
6.05417,572588
6.06153,521038
6.06892,517357
6.0763,435546
6.08367,300471
6.09105,422457
6.09842,1182872
6.1058,2022502
6.11318,2211131
6.12055,3208916
6.12793,5331136
6.1353,5882354
6.14268,2850281
6.15005,777943
6.15743,362420
6.16482,340041
6.17218,491058
6.17957,577182
6.18693,457987
6.19432,270739
6.2017,170974
6.20907,136406
6.21645,168740
6.22382,310049
6.2312,427248
6.23857,380525
6.24595,290739
6.25333,317951
6.2607,479915
6.26808,551513
6.27545,587318
6.28283,757565
6.29022,857186
6.29758,714177
6.30497,526894
6.31233,491682
6.31972,521109
6.32708,571245
6.33447,558298
6.34185,573977
6.34922,711318
6.3566,711907
6.36397,583530
6.37135,713640
6.37873,1483450
6.3861,2097576
6.39348,1503770
6.40085,650530
6.40823,422580
6.4156,500578
6.42298,516994
6.43037,669995
6.43773,1208529
6.44512,1534217
6.45248,1301583
6.45987,958744
6.46725,657490
6.47462,432788
6.482,316998
6.48937,369204
6.49675,490414
6.50412,601621
6.5115,821779
6.51888,1227574
6.52625,1470794
6.53363,1309633
6.541,905237
6.54838,756682
6.55577,1040138
6.56313,1350322
6.57052,1194337
6.57788,790099
6.58527,598595
6.59263,514713
6.60002,534333
6.6074,569093
6.61477,485810
6.62215,408350
6.62952,435408
6.6369,526525
6.64427,583819
6.65165,512307
6.65903,451768
6.6664,506212
6.67378,685751
6.68115,829988
6.68853,782476
6.69592,634919
6.70328,698179
6.71067,827755
6.71803,868898
6.72542,945974
6.73278,916029
6.74017,994446
6.74755,1156180
6.75492,1222939
6.7623,1398043
6.76967,1175719
6.77705,576641
6.78443,555299
6.7918,1154721
6.79918,1871426
6.80655,1607399
6.81393,1242833
6.8213,1736084
6.82868,2385857
6.83607,2544593
6.84343,1850833
6.85082,921390
6.85818,621211
6.86557,613604
6.87295,634039
6.88032,592946
6.8877,531836
6.89507,588381
6.90245,1211687
6.90982,1968262
6.9172,1657000
6.92458,977029
6.93195,639150
6.93933,506883
6.9467,527431
6.95408,499398
6.96147,422326
6.96883,346769
6.97622,321075
6.98358,386142
6.99097,434030
6.99833,395042
7.00572,423193
7.0131,534960
7.02047,639253
7.02785,833526
7.03522,1027353
7.0426,966548
7.04998,1037916
7.05735,972584
7.06473,718529
7.0721,601805
7.07948,562347
7.08685,858276
7.09423,1223223
7.10162,991060
7.10898,649037
7.11637,930468
7.12373,1319823
7.13112,1190162
7.1385,969458
7.14587,762534
7.15325,762039
7.16062,919603
7.168,875241
7.17537,627856
7.18275,473838
7.19013,480873
7.1975,645151
7.20488,1176257
7.21225,2951509
7.21963,5679125
7.227,6227521
7.23438,2364769
7.24177,822137
7.24913,713365
7.25652,720745
7.26388,807998
7.27127,848765
7.27865,775078
7.28602,719966
7.2934,624422
7.30077,525008
7.30815,705467
7.31552,1117628
7.3229,1179242
7.33028,907791
7.33765,761416
7.34503,744980
7.3524,797325
7.35978,736399
7.36717,631817
7.37453,762501
7.38192,934290
7.38928,1004680
7.39667,1023410
7.40403,1049675
7.41142,836009
7.4188,769561
7.42617,1349453
7.43355,1580857
7.44092,1132774
7.4483,921708
7.45568,1121577
7.46305,1130357
7.47043,745127
7.4778,433657
7.48518,419426
7.49255,626623
7.49993,1206991
7.50732,1794403
7.51468,1253586
7.52207,576490
7.52943,422269
7.53682,373062
7.5442,310387
7.55157,313640
7.55895,454956
7.56632,599229
7.5737,721862
7.58107,745230
7.58845,662641
7.59583,711674
7.6032,1058087
7.61058,1327452
7.61795,968019
7.62533,779134
7.63272,1045947
7.64008,914666
7.64747,693374
7.65483,795209
7.66222,1051536
7.66958,918516
7.67697,698604
7.68435,740678
7.69172,676008
7.6991,510377
7.70647,474816
7.71385,654611
7.72123,783221
7.7286,780360
7.73598,882181
7.74335,798050
7.75073,648316
7.7581,666891
7.76548,672213
7.77287,735050
7.78023,1027610
7.78762,1151252
7.79498,1171622
7.80237,976156
7.80973,729278
7.81712,792212
7.8245,978599
7.83187,1489965
7.83925,1797960
7.84662,1349202
7.854,942992
7.86138,816858
7.86875,1318553
7.87613,1988895
7.8835,1653367
7.89088,925040
7.89825,872416
7.90563,964004
7.91302,747895
7.92038,458958
7.92777,400782
7.93513,536331
7.94252,1104299
7.9499,1725619
7.95727,1568375
7.96465,1176466
7.97202,897924
7.9794,687608
7.98677,629243
7.99415,767913
8.00153,890599
8.0089,761675
8.01628,660872
8.02365,606113
8.03103,513537
8.03842,473688
8.04578,491750
8.05317,568718
8.06053,561878
8.06792,430631
8.07528,340174
8.08267,343221
8.09005,407788
8.09742,456691
8.1048,546384
8.11217,624180
8.11955,605554
8.12693,646434
8.1343,897783
8.14168,1319982
8.14905,1371988
8.15643,1074911
8.1638,834975
8.17118,717070
8.17857,631307
8.18593,688719
8.19332,827291
8.20068,1013699
8.20807,966480
8.21545,853093
8.22282,983113
8.2302,2047883
8.23757,4334708
8.24495,5541816
8.25232,2599435
8.2597,831543
8.26708,706598
8.27445,702072
8.28183,716515
8.2892,756957
8.29658,755467
8.30397,744058
8.31133,780871
8.31872,830923
8.32608,724064
8.33347,580662
8.34083,572401
8.34822,691396
8.3556,806076
8.36297,866146
8.37035,1301831
8.37772,1846776
8.3851,1531880
8.39247,829854
8.39985,604615
8.40723,613620
8.4146,670994
8.42198,675593
8.42935,650904
8.43673,603725
8.44412,523179
8.45148,618427
8.45887,863742
8.46623,826681
8.47362,614492
8.48098,476762
8.48837,379548
8.49575,394106
8.50312,639325
8.5105,804579
8.51787,712610
8.52525,670398
8.53263,583260
8.54,604107
8.54738,763590
8.55475,853281
8.56213,739196
8.5695,650312
8.57688,666307
8.58427,612026
8.59163,584318
8.59902,702741
8.60638,838473
8.61377,743775
8.62115,526956
8.62852,421200
8.6359,457310
8.64327,515031
8.65065,520756
8.65802,612295
8.6654,851989
8.67278,1136709
8.68015,1110214
8.68753,964104
8.6949,856713
8.70228,722404
8.70967,640671
8.71703,547001
8.72442,469002
8.73178,482215
8.73917,630498
8.74653,890601
8.75392,855375
8.7613,900287
8.76867,1180885
8.77605,971420
8.78342,717546
8.7908,694756
8.79818,740372
8.80555,913454
8.81293,1092256
8.8203,964105
8.82768,874604
8.83505,830553
8.84243,757803
8.84982,1062630
8.85718,1367878
8.86457,1036313
8.87193,784864
8.87932,781977
8.8867,648175
8.89407,452313
8.90145,441692
8.90882,592948
8.9162,967198
8.92357,1240866
8.93095,1088352
8.93833,1414728
8.9457,1831904
8.95308,1246249
8.96045,809297
8.96783,764409
8.9752,641658
8.98258,631682
8.98997,975066
8.99733,1081500
9.00472,827859
9.01208,592870
9.01947,483218
9.02685,481746
9.03422,467984
9.0416,452008
9.04897,532740
9.05635,525448
9.06372,450015
9.0711,387122
9.07848,436703
9.08585,615815
9.09323,688051
9.1006,591976
9.10798,559671
9.11537,597109
9.12273,602397
9.13012,667739
9.13748,758153
9.14487,787478
9.15223,742823
9.15962,632164
9.167,618074
9.17437,725733
9.18175,1023664
9.18912,2199485
9.1965,4220457
9.20388,4408451
9.21125,1677409
9.21863,730487
9.226,624986
9.23338,591500
9.24075,619668
9.24813,762236
9.25552,881994
9.26288,888407
9.27027,752707
9.27763,606669
9.28502,621679
9.2924,748757
9.29977,816281
9.30715,748540
9.31452,578258
9.3219,524637
9.32927,572842
9.33665,597411
9.34403,699404
9.3514,757815
9.35878,791546
9.36615,965753
9.37353,866647
9.38092,551210
9.38828,417643
9.39567,447529
9.40303,470467
9.41042,467758
9.41778,435715
9.42517,378092
9.43255,328540
9.43992,394907
9.4473,537172
9.45467,620388
9.46205,613992
9.46943,567355
9.4768,610163
9.48418,821290
9.49155,961777
9.49893,806774
9.5063,692690
9.51368,700287
9.52107,699586
9.52843,696045
9.53582,562371
9.54318,491176
9.55057,525709
9.55793,647741
9.56532,716700
9.5727,684681
9.58007,569871
9.58745,471023
9.59482,442012
9.6022,449447
9.60958,438715
9.61695,410194
9.62433,456113
9.6317,549837
9.63908,665252
9.64645,986802
9.65383,1275573
9.66122,1099206
9.66858,682497
9.67597,576220
9.68333,723218
9.69072,693382
9.6981,549704
9.70547,524024
9.71285,597756
9.72022,692554
9.7276,887548
9.73497,999598
9.74235,826861
9.74973,620317
9.7571,502426
9.76448,601070
9.77185,943835
9.77923,995514
9.78662,675429
9.79398,556301
9.80137,511362
9.80873,478958
9.81612,448616
9.82348,468463
9.83087,691899
9.83825,1087372
9.84562,1071702
9.853,793467
9.86037,684701
9.86775,597782
9.87513,558805
9.8825,642823
9.88988,1074341
9.89725,1465219
9.90463,1007529
9.912,511912
9.91938,407113
9.92677,438843
9.93413,439269
9.94152,414711
9.94888,448162
9.95627,463611
9.96365,404951
9.97102,370589
9.9784,389422
9.98577,439651
9.99315,477390
10.0005,498593
10.0079,509533
10.0153,483270
10.0227,460261
10.03,475019
10.0374,476480
10.0448,475697
10.0522,513578
10.0595,563142
10.0669,565719
10.0743,619989
10.0817,840323
10.089,1818017
10.0964,3343677
10.1038,3196036
10.1112,1294726
10.1186,642346
10.1259,625299
10.1333,685851
10.1407,610623
10.1481,501617
10.1554,494130
10.1628,603244
10.1702,708696
10.1776,710580
10.1849,732756
10.1923,706201
10.1997,613505
10.2071,520153
10.2144,492499
10.2218,533711
10.2292,589385
10.2366,630066
10.244,528060
10.2513,425831
10.2587,403761
10.2661,391688
10.2735,394210
10.2808,459724
10.2882,488699
10.2956,465459
10.303,429780
10.3103,417824
10.3177,441263
10.3251,486163
10.3325,494045
10.3398,484039
10.3472,435739
10.3546,418001
10.362,409781
10.3694,420894
10.3767,443490
10.3841,497023
10.3915,563718
10.3989,557863
10.4062,485163
10.4136,483115
10.421,530387
10.4284,520533
10.4357,461994
10.4431,461379
10.4505,507441
10.4579,523580
10.4652,465851
10.4726,464166
10.48,514909
10.4874,546227
10.4947,533865
10.5021,570393
10.5095,652851
10.5169,705714
10.5243,738829
10.5316,619913
10.539,497650
10.5464,568610
10.5538,698780
10.5611,782878
10.5685,764077
10.5759,625040
10.5833,516216
10.5906,533598
10.598,685962
10.6054,632163
10.6128,475327
10.6201,552317
10.6275,1022412
10.6349,1382415
10.6423,1271357
10.6497,778202
10.657,525075
10.6644,473222
10.6718,417211
10.6792,392716
10.6865,393661
10.6939,442855
10.7013,665088
10.7087,731173
10.716,511149
10.7234,392184
10.7308,400462
10.7382,423919
10.7455,413694
10.7529,387226
10.7603,383485
10.7677,381161
10.7751,379041
10.7824,385906
10.7898,461652
10.7972,517671
10.8046,457721
10.8119,381679
10.8193,350290
10.8267,418080
10.8341,511304
10.8414,467956
10.8488,385200
10.8562,334005
10.8636,328942
10.8709,348132
10.8783,390712
10.8857,489581
10.8931,506272
10.9004,435872
10.9078,404903
10.9152,396314
10.9226,405271
10.93,555739
10.9373,1318103
10.9447,2508338
10.9521,2413437
10.9595,1050782
10.9668,552883
10.9742,436790
10.9816,405371
10.989,431512
10.9963,463209
11.0037,475479
11.0111,506084
11.0185,562736
11.0258,543655
11.0332,471672
11.0406,409638
11.048,420188
11.0554,429241
11.0627,470893
11.0701,487795
11.0775,461840
11.0849,401075
11.0922,357242
11.0996,345523
11.107,343482
11.1144,355350
11.1217,369399
11.1291,399711
11.1365,401856
11.1439,360207
11.1512,326427
11.1586,325939
11.166,338813
11.1734,349828
11.1808,395879
11.1881,382332
11.1955,337551
11.2029,321571
11.2103,314522
11.2176,305607
11.225,336274
11.2324,341580
11.2398,317330
11.2471,295938
11.2545,273336
11.2619,258504
11.2693,277418
11.2766,283192
11.284,298057
11.2914,305156
11.2988,300247
11.3062,321413
11.3135,402264
11.3209,499802
11.3283,529685
11.3357,492242
11.343,476068
11.3504,415719
11.3578,390278
11.3652,441419
11.3725,480244
11.3799,431677
11.3873,409559
11.3947,398084
11.402,367046
11.4094,447177
11.4168,595138
11.4242,579344
11.4315,426754
11.4389,313413
11.4463,325375
11.4537,460100
11.4611,598658
11.4684,519814
11.4758,443341
11.4832,454135
11.4906,423329
11.4979,375934
11.5053,355047
11.5127,403764
11.5201,508570
11.5274,473404
11.5348,334148
11.5422,285381
11.5496,299521
11.5569,320024
11.5643,329678
11.5717,336186
11.5791,317221
11.5865,298890
11.5938,305882
11.6012,306678
11.6086,277480
11.616,272587
11.6233,278405
11.6307,282481
11.6381,285708
11.6455,286379
11.6528,286911
11.6602,271747
11.6676,264704
11.675,281245
11.6823,312561
11.6897,334692
11.6971,317876
11.7045,283784
11.7119,268269
11.7192,270481
11.7266,281011
11.734,395116
11.7414,934801
11.7487,1680580
11.7561,1294531
11.7635,556674
11.7709,344365
11.7782,311198
11.7856,322563
11.793,343722
11.8004,388535
11.8077,402204
11.8151,378723
11.8225,368354
11.8299,345488
11.8372,329294
11.8446,324695
11.852,317746
11.8594,306764
11.8668,312745
11.8741,292594
11.8815,272268
11.8889,274890
11.8963,303410
11.9036,300647
11.911,295633
11.9184,321514
11.9258,309410
11.9331,273272
11.9405,256380
11.9479,277202
11.9553,277912
11.9626,272802
11.97,260683
11.9774,277690
11.9848,276505
11.9922,255756
11.9995,245633
12.0069,250032
12.0143,264123
12.0217,267546
12.029,259416
12.0364,237312
12.0438,220863
12.0512,216054
12.0585,216142
12.0659,223732
12.0733,235645
12.0807,245232
12.088,295716
12.0954,371437
12.1028,391859
12.1102,367824
12.1176,437707
12.1249,534921
12.1323,524502
12.1397,407331
12.1471,349132
12.1544,313331
12.1618,266098
12.1692,247787
12.1766,247021
12.1839,257840
12.1913,306476
12.1987,325476
12.2061,286410
12.2134,264811
12.2208,284824
12.2282,351938
12.2356,464587
12.2429,419066
12.2503,288880
12.2577,235583
12.2651,238486
12.2725,244105
12.2798,261887
12.2872,287290
12.2946,345822
12.302,346533
12.3093,261210
12.3167,225970
12.3241,232595
12.3315,226676
12.3388,221003
12.3462,211719
12.3536,218276
12.361,222575
12.3683,213118
12.3757,202624
12.3831,206700
12.3905,228538
12.3979,238742
12.4052,228213
12.4126,224100
12.42,239386
12.4274,243993
12.4347,239056
12.4421,244588
12.4495,225426
12.4569,210359
12.4642,209756
12.4716,212045
12.479,217665
12.4864,229879
12.4937,284059
12.5011,524433
12.5085,984765
12.5159,921287
12.5233,442360
12.5306,236231
12.538,242825
12.5454,361010
12.5528,569810
12.5601,642719
12.5675,476372
12.5749,332302
12.5823,290412
12.5896,277261
12.597,260733
12.6044,252555
12.6118,256920
12.6191,246760
12.6265,228921
12.6339,209661
12.6413,199559
12.6486,198985
12.656,203942
12.6634,199156
12.6708,202664
12.6782,212353
12.6855,224404
12.6929,216211
12.7003,212154
12.7077,201215
12.715,192627
12.7224,199028
12.7298,201177
12.7372,190907
12.7445,184570
12.7519,182778
12.7593,189410
12.7667,213079
12.774,215388
12.7814,192134
12.7888,179390
12.7962,174473
12.8036,170246
12.8109,173494
12.8183,198086
12.8257,248942
12.8331,288668
12.8404,287119
12.8478,259859
12.8552,239851
12.8626,223601
12.8699,196546
12.8773,191782
12.8847,224733
12.8921,239816
12.8994,225246
12.9068,201311
12.9142,177145
12.9216,184221
12.929,228700
12.9363,245824
12.9437,211132
12.9511,180386
12.9585,181777
12.9658,221572
12.9732,278570
12.9806,249933
12.988,202149
12.9953,179841
13.0027,191282
13.0101,201968
13.0175,186291
13.0248,198272
13.0322,239801
13.0396,226093
13.047,180177
13.0544,159667
13.0617,156639
13.0691,169270
13.0765,168553
13.0839,160226
13.0912,160529
13.0986,163948
13.106,170266
13.1134,167613
13.1207,166189
13.1281,155680
13.1355,148158
13.1429,151945
13.1502,158633
13.1576,160369
13.165,155599
13.1724,151042
13.1797,154258
13.1871,155014
13.1945,156822
13.2019,152622
13.2093,151075
13.2166,167386
13.224,295174
13.2314,538581
13.2388,535779
13.2461,283209
13.2535,161585
13.2609,147510
13.2683,161720
13.2756,158836
13.283,161125
13.2904,186678
13.2978,240204
13.3051,328938
13.3125,336381
13.3199,252151
13.3273,193859
13.3347,163780
13.342,147182
13.3494,137511
13.3568,139905
13.3642,133061
13.3715,129119
13.3789,131935
13.3863,135771
13.3937,133500
13.401,134722
13.4084,128127
13.4158,121415
13.4232,125514
13.4305,130682
13.4379,129073
13.4453,129649
13.4527,119712
13.4601,116707
13.4674,116978
13.4748,124573
13.4822,132337
13.4896,126188
13.4969,120782
13.5043,113712
13.5117,115023
13.5191,128850
13.5264,149868
13.5338,157233
13.5412,151311
13.5486,143432
13.5559,141587
13.5633,137329
13.5707,122301
13.5781,116490
13.5854,122337
13.5928,128854
13.6002,122294
13.6076,111708
13.615,112838
13.6223,112442
13.6297,116706
13.6371,133191
13.6445,129243
13.6518,115975
13.6592,111355
13.6666,120390
13.674,130556
13.6813,123140
13.6887,108282
13.6961,108526
13.7035,112845
13.7108,110158
13.7182,102454
13.7256,111523
13.733,141447
13.7404,146780
13.7477,115873
13.7551,98169
13.7625,95431
13.7699,94004
13.7772,94076
13.7846,97116
13.792,103903
13.7994,104870
13.8067,105432
13.8141,103916
13.8215,96809
13.8289,94262
13.8362,95222
13.8436,91910
13.851,91984
13.8584,91663
13.8658,97684
13.8731,109487
13.8805,115214
13.8879,110639
13.8953,98528
13.9026,92017
13.91,117791
13.9174,214948
13.9248,288722
13.9321,197979
13.9395,113616
13.9469,92651
13.9543,89958
13.9616,88018
13.969,83617
13.9764,85695
13.9838,90078
13.9911,92718
13.9985,92454
14.0059,89085
14.0133,87240
14.0207,88984
14.028,89820
14.0354,89918
14.0428,83402
14.0502,78740
14.0575,80467
14.0649,83483
14.0723,81182
14.0797,78077
14.087,72930
14.0944,73029
14.1018,76237
14.1092,74409
14.1165,71127
14.1239,70331
14.1313,69934
14.1387,73764
14.1461,74458
14.1534,75131
14.1608,72817
14.1682,71787
14.1756,73517
14.1829,78346
14.1903,85958
14.1977,86333
14.2051,83919
14.2124,80654
14.2198,77624
14.2272,78627
14.2346,75323
14.2419,70871
14.2493,71298
14.2567,74034
14.2641,72527
14.2715,65224
14.2788,63211
14.2862,62365
14.2936,65349
14.301,72641
14.3083,73717
14.3157,66709
14.3231,67149
14.3305,71586
14.3378,74399
14.3452,64418
14.3526,62788
14.36,62012
14.3673,62077
14.3747,61899
14.3821,70922
14.3895,77975
14.3969,70165
14.4042,62617
14.4116,62536
14.419,66877
14.4264,65495
14.4337,59967
14.4411,57632
14.4485,57305
14.4559,59138
14.4632,60167
14.4706,58814
14.478,56694
14.4854,55915
14.4927,57193
14.5001,56076
14.5075,55622
14.5149,54462
14.5222,52972
14.5296,52730
14.537,55012
14.5444,71973
14.5518,118440
14.5591,132672
14.5665,89224
14.5739,61739
14.5813,56372
14.5886,52961
14.596,52594
14.6034,53175
14.6108,52420
14.6181,52558
14.6255,52066
14.6329,55727
14.6403,52660
14.6476,50783
14.655,50753
14.6624,52468
14.6698,52468
14.6772,52237
14.6845,49187
14.6919,47526
14.6993,46054
14.7067,45895
14.714,44442
14.7214,44647
14.7288,43616
14.7362,44512
14.7435,43657
14.7509,43405
14.7583,45156
14.7657,46668
14.773,47837
14.7804,50308
14.7878,50187
14.7952,49700
14.8026,47529
14.8099,46394
14.8173,45878
14.8247,46712
14.8321,43224
14.8394,42700
14.8468,43985
14.8542,42879
14.8616,42416
14.8689,41390
14.8763,41011
14.8837,42997
14.8911,41910
14.8984,42083
14.9058,41261
14.9132,43544
14.9206,42637
14.9279,39540
14.9353,38504
14.9427,39375
14.9501,37734
14.9575,38818
14.9648,41544
14.9722,42217
14.9796,41940
14.987,41539
14.9943,39927
15.0017,37986
15.0091,38772
15.0165,40046
15.0238,38662
15.0312,37365
15.0386,37004
15.046,36436
15.0533,35554
15.0607,35533
15.0681,34099
15.0755,33619
15.0829,33796
15.0902,33962
15.0976,36641
15.105,50939
15.1124,68796
15.1197,51818
15.1271,39512
15.1345,36401
15.1419,34633
15.1492,34152
15.1566,33632
15.164,33933
15.1714,32544
15.1787,32771
15.1861,33430
15.1935,33952
15.2009,33807
15.2083,31987
15.2156,32582
15.223,32659
15.2304,32841
15.2378,32422
15.2451,31172
15.2525,30495
15.2599,31290
15.2673,29849
15.2746,30747
15.282,31051
15.2894,30692
15.2968,31182
15.3041,32151
15.3115,32265
15.3189,32414
15.3263,32264
15.3336,31887
15.341,31446
15.3484,31005
15.3558,30096
15.3632,30425
15.3705,30979
15.3779,30762
15.3853,30971
15.3927,29687
15.4,30354
15.4074,29654
15.4148,29783
15.4222,29654
15.4295,30210
15.4369,30091
15.4443,28774
15.4517,29256
15.459,29374
15.4664,29241
15.4738,29299
15.4812,29561
15.4886,28543
15.4959,28511
15.5033,29026
15.5107,28476
15.5181,27832
15.5254,28658
15.5328,28520
15.5402,29320
15.5476,28308
15.5549,27603
15.5623,27895
15.5697,27238
15.5771,27457
15.5844,26853
15.5918,29168
15.5992,32748
15.6066,36994
15.614,32383
15.6213,28734
15.6287,28015
15.6361,29178
15.6435,28750
15.6508,28341
15.6582,28060
15.6656,28115
15.673,27942
15.6803,27745
15.6877,27896
15.6951,27752
15.7025,28449
15.7098,28098
15.7172,27378
15.7246,28113
15.732,27182
15.7393,27819
15.7467,26691
15.7541,27239
15.7615,27713
15.7689,27871
15.7762,28171
15.7836,28151
15.791,27261
15.7984,27645
15.8057,27722
15.8131,27935
15.8205,28012
15.8279,27334
15.8352,27518
15.8426,27562
15.85,27432
15.8574,27360
15.8647,27418
15.8721,27320
15.8795,27905
15.8869,28323
15.8943,28243
15.9016,27058
15.909,28280
15.9164,28102
15.9238,28449
15.9311,27606
15.9385,26994
15.9459,27508
15.9533,27043
15.9606,27264
15.968,28229
15.9754,27302
15.9828,27014
15.9901,27323
15.9975,26921
16.0049,27478
16.0123,27279
16.0196,27492
16.027,27442
16.0344,27127
16.0418,29096
16.0492,29796
16.0565,28620
16.0639,27648
16.0713,27900
16.0787,27437
16.086,28516
16.0934,28143
16.1008,28067
16.1082,27526
16.1155,27840
16.1229,27882
16.1303,27869
16.1377,27423
16.1451,27774
16.1524,28039
16.1598,27874
16.1672,27922
16.1746,28089
16.1819,28082
16.1893,27357
16.1967,28065
16.204,27773
16.2114,28140
16.2188,28187
16.2262,27731
16.2336,28047
16.2409,28361
16.2483,27576
16.2557,28564
16.2631,28786
16.2704,29009
16.2778,27825
16.2852,29005
16.2926,28552
16.2999,28927
16.3073,28534
16.3147,27840
16.3221,28251
16.3295,27662
16.3368,28201
16.3442,28721
16.3516,28016
16.359,29121
16.3663,28374
16.3737,28849
16.3811,28959
16.3885,28884
16.3958,28879
16.4032,28917
16.4106,28894
16.418,28885
16.4254,28579
16.4327,28444
16.4401,28988
16.4475,29511
16.4549,29482
16.4622,29294
16.4696,28653
16.477,29526
16.4843,29817
16.4917,29674
16.4991,29702
16.5065,29434
16.5139,29227
16.5212,29422
16.5286,28762
16.536,29023
16.5434,29578
16.5508,29729
16.5581,29154
16.5655,29429
16.5729,29436
16.5802,29258
16.5876,30512
16.595,30206
16.6024,29423
16.6097,30049
16.6171,30229
16.6245,29917
16.6319,29190
16.6393,29400
16.6466,29969
16.654,29924
16.6614,29123
16.6688,29528
16.6761,29898
16.6835,29844
16.6909,29522
16.6983,29285
16.7056,29955
16.713,29739
16.7204,29735
16.7278,29851
16.7352,30057
16.7425,29280
16.7499,29555
16.7573,29105
16.7647,29869
16.772,30142
16.7794,30259
16.7868,29391
16.7942,29876
16.8015,29506
16.8089,29615
16.8163,30144
16.8237,29718
16.8311,30249
16.8384,30095
16.8458,30296
16.8532,30296
16.8606,30089
16.8679,29833
16.8753,30010
16.8827,30128
16.89,29750
16.8974,30396
16.9048,29842
16.9122,30260
16.9196,30307
16.9269,30701
16.9343,30072
16.9417,29812
16.9491,29574
16.9565,29997
16.9638,30281
16.9712,30212
16.9786,30391
16.9859,29585
16.9933,29589
17.0007,29478
17.0081,29662
17.0155,29659
17.0228,29453
17.0302,28918
17.0376,29769
17.045,29658
17.0523,29858
17.0597,29559
17.0671,29631
17.0745,29795
17.0818,29914
17.0892,29454
17.0966,30159
17.104,29580
17.1114,30258
17.1187,30030
17.1261,30468
17.1335,30017
17.1409,30674
17.1482,30327
17.1556,30633
17.163,31276
17.1703,31714
17.1777,31872
17.1851,32637
17.1925,32219
17.1999,33429
17.2072,32983
17.2146,33385
17.222,33237
17.2294,32155
17.2368,31633
17.2441,32777
17.2515,32454
17.2589,32096
17.2662,31041
17.2736,30610
17.281,30929
17.2884,30831
17.2958,30480
17.3031,30750
17.3105,30362
17.3179,30350
17.3253,30416
17.3326,30427
17.34,30964
17.3474,30848
17.3548,30657
17.3622,30019
17.3695,30864
17.3769,31024
17.3843,30322
17.3916,30398
17.399,30802
17.4064,30242
17.4138,30735
17.4212,30079
17.4285,30347
17.4359,30697
17.4433,30355
17.4507,30902
17.458,29992
17.4654,30042
17.4728,30525
17.4802,30885
17.4875,30148
