D:\Data GC-MS\2017\ST\GILEAD STD\SOLER\SOL-11 87% EVP LIQ.D 05 Jun 17  02:47 pm
Start of data points
1.29393,7864233
1.30067,7985372
1.30742,8132272
1.31415,8318901
1.3209,8421843
1.32763,8463307
1.33438,8464373
1.34113,8405395
1.34787,8312484
1.35462,8193723
1.36135,8035722
1.3681,7880604
1.37483,7692196
1.38158,7498054
1.38833,7274939
1.39507,7003658
1.40182,6763277
1.40855,6532854
1.4153,6279543
1.42203,6055460
1.42878,5818556
1.43552,5584763
1.44227,5350903
1.44902,5120594
1.45575,4871697
1.4625,4613055
1.46923,4367744
1.47598,4083133
1.48272,3862975
1.48947,3634734
1.51033,10131482
1.5177,9617188
1.52508,9086251
1.53245,8660063
1.53983,8296828
1.54722,7943657
1.55458,7632085
1.56197,7392272
1.56933,7115535
1.57672,6868768
1.5841,6618804
1.59147,6365170
1.59885,6153025
1.60622,5934858
1.6136,5688640
1.62097,5470429
1.62835,5205397
1.63573,4969262
1.6431,4733458
1.65048,4493130
1.65785,4276855
1.66523,4044817
1.67262,3799274
1.67998,3563514
1.68737,3381639
1.69473,3179347
1.70212,2983469
1.70948,2782256
1.71687,2592507
1.72425,2423875
1.73162,2257055
1.739,2104516
1.74637,1959191
1.75375,1819045
1.76113,1687196
1.7685,1566631
1.77588,1454733
1.78325,1349642
1.79063,1247185
1.798,1150436
1.80538,1072928
1.81277,989240
1.82013,919161
1.82752,852196
1.83488,787299
1.84227,723916
1.84965,670552
1.85702,630992
1.8644,579643
1.87177,535885
1.87915,496544
1.88652,461463
1.8939,426472
1.90128,400604
1.90865,371064
1.91603,349959
1.9234,331841
1.93078,312221
1.93815,294879
1.94553,282117
1.95292,272903
1.96028,262526
1.96767,252389
1.97503,244797
1.98242,236292
1.9898,231415
1.99717,222653
2.00455,216553
2.01192,213066
2.0193,204044
2.02667,194440
2.03405,188590
2.04143,183025
2.0488,178811
2.05618,175126
2.06355,168865
2.07093,158553
2.07832,148556
2.08568,139715
2.09307,131580
2.10043,124420
2.10782,116119
2.11518,109135
2.12257,103877
2.12995,99052
2.13732,91104
2.1447,87048
2.15207,82794
2.15945,78410
2.16683,76364
2.1742,71554
2.18158,68299
2.18895,66473
2.19633,63881
2.2037,63010
2.21108,60339
2.21847,58702
2.22583,57021
2.23322,55620
2.24058,53743
2.24797,51976
2.25535,52126
2.26272,50846
2.2701,49949
2.27747,48501
2.28485,48137
2.29222,48082
2.2996,45808
2.30698,46521
2.31435,45624
2.32173,44779
2.3291,44860
2.33648,45554
2.34387,46947
2.35123,47353
2.35862,46174
2.36598,47604
2.37337,49413
2.38073,50050
2.38812,49714
2.3955,51131
2.40287,52291
2.41025,52876
2.41762,53803
2.425,56505
2.43238,57072
2.43975,56751
2.44713,57056
2.4545,55540
2.46188,56364
2.46925,55984
2.47663,55964
2.48402,55397
2.49138,54794
2.49877,54036
2.50613,52191
2.51352,51908
2.52088,52496
2.52827,51009
2.53565,50445
2.54302,49567
2.5504,48817
2.55777,49251
2.56515,49585
2.57253,48540
2.5799,48951
2.58728,48597
2.59465,47657
2.60203,48929
2.6094,51993
2.61678,57868
2.62417,64379
2.63153,70685
2.63892,74893
2.64628,80006
2.65367,84325
2.66105,86897
2.66842,91514
2.6758,93871
2.68317,94022
2.69055,94502
2.69792,95630
2.7053,99004
2.71268,99204
2.72005,98407
2.72743,99172
2.7348,98245
2.74218,100137
2.74957,99328
2.75693,99278
2.76432,97627
2.77168,94681
2.77907,92784
2.78643,90413
2.79382,85191
2.8012,81042
2.80857,75817
2.81595,71367
2.82332,67955
2.8307,64412
2.83808,61970
2.84545,60710
2.85283,57241
2.8602,55015
2.86758,55517
2.87495,53547
2.88233,52638
2.88972,51473
2.89708,51484
2.90447,50959
2.91183,47807
2.91922,49318
2.9266,46309
2.93397,46435
2.94135,46888
2.94872,46529
2.9561,45372
2.96347,43166
2.97085,43250
2.97823,44735
2.9856,44041
2.99298,43371
3.00035,42618
3.00773,43935
3.01512,43895
3.02248,43061
3.02987,43434
3.03723,41989
3.04462,42640
3.05198,42524
3.05937,41440
3.06675,41639
3.07412,42047
3.0815,41895
3.08887,42035
3.09625,42823
3.10362,42343
3.111,41234
3.11838,42168
3.12575,40798
3.13313,41933
3.1405,41765
3.14788,42503
3.15527,44235
3.16263,43629
3.17002,44042
3.17738,45314
3.18477,45955
3.19213,46256
3.19952,46395
3.2069,46494
3.21427,45651
3.22165,44592
3.22902,44964
3.2364,46629
3.24378,44399
3.25115,45258
3.25853,45981
3.2659,45326
3.27328,44389
3.28065,45115
3.28803,44471
3.29542,44909
3.30278,45555
3.31017,45554
3.31753,47216
3.32492,47814
3.3323,47118
3.33967,46522
3.34705,45109
3.35442,44921
3.3618,46659
3.36917,45850
3.37655,47127
3.38393,47853
3.3913,48230
3.39868,48495
3.40605,49018
3.41343,50090
3.42082,51485
3.42818,56348
3.43557,65844
3.44293,69338
3.45032,71280
3.45768,71977
3.46507,71685
3.47245,70255
3.47982,69401
3.4872,68250
3.49457,63790
3.50195,60580
3.50933,58021
3.5167,54037
3.52408,52817
3.53145,52669
3.53883,52594
3.5462,53108
3.55358,53988
3.56097,55866
3.56833,56937
3.57572,55902
3.58308,57408
3.59047,55406
3.59785,54056
3.60522,54148
3.6126,53254
3.61997,56933
3.62735,58316
3.63472,61009
3.6421,61971
3.64948,63147
3.65685,64667
3.66423,64358
3.6716,64699
3.67898,68837
3.68635,79788
3.69373,90694
3.70112,100164
3.70848,109679
3.71587,115949
3.72323,114182
3.73062,106712
3.738,97976
3.74537,87239
3.75275,78269
3.76012,70883
3.7675,63936
3.77487,59786
3.78225,58569
3.78963,63792
3.797,75049
3.80438,85869
3.81175,98503
3.81913,104340
3.82652,114406
3.83388,116376
3.84127,107320
3.84863,99733
3.85602,90595
3.86338,78383
3.87077,70980
3.87815,64808
3.88552,59869
3.8929,58654
3.90027,54185
3.90765,51764
3.91503,51611
3.9224,49450
3.92978,49231
3.93715,47491
3.94453,46875
3.9519,45418
3.95928,44531
3.96667,43530
3.97403,45071
3.98142,44699
3.98878,44284
3.99617,44007
4.00355,45360
4.01092,45601
4.0183,47328
4.02567,47888
4.03305,47030
4.04042,45340
4.0478,46907
4.05518,47414
4.06255,49124
4.06993,46684
4.0773,43637
4.08468,41303
4.09207,39717
4.09943,38000
4.10682,39445
4.11418,39091
4.12157,40361
4.12893,39931
4.13632,39882
4.1437,39616
4.15107,38863
4.15845,38536
4.16582,36962
4.1732,35956
4.18058,36275
4.18795,36711
4.19533,38421
4.2027,39055
4.21008,38840
4.21745,39745
4.22483,39979
4.23222,41053
4.23958,41175
4.24697,42483
4.25433,43430
4.26172,43115
4.26908,42775
4.27647,42181
4.28385,41373
4.29122,42633
4.2986,43511
4.30597,44423
4.31335,46735
4.32073,48775
4.3281,50515
4.33548,51061
4.34285,48846
4.35023,46782
4.3576,47568
4.36498,50585
4.37237,52966
4.37973,54341
4.38712,57529
4.39448,57728
4.40187,56609
4.40925,56372
4.41662,53836
4.424,51114
4.43137,49801
4.43875,47174
4.44612,45954
4.4535,44921
4.46088,46791
4.46825,48328
4.47563,48589
4.483,52689
4.49038,64884
4.49777,75225
4.50513,76439
4.51252,71514
4.51988,66031
4.52727,59965
4.53463,57935
4.54202,55983
4.5494,54722
4.55677,51721
4.56415,47078
4.57152,45129
4.5789,43557
4.58628,45983
4.59365,49225
4.60103,53385
4.6084,55722
4.61578,56433
4.62315,56650
4.63053,56161
4.63792,54940
4.64528,52743
4.65267,50778
4.66003,49354
4.66742,49246
4.6748,51877
4.68217,53435
4.68955,54100
4.69692,55979
4.7043,54668
4.71167,51506
4.71905,52603
4.72643,55093
4.7338,56968
4.74118,54745
4.74855,51623
4.75593,47133
4.76332,44237
4.77068,42388
4.77807,42589
4.78543,42823
4.79282,41165
4.80018,41766
4.80757,42624
4.81495,45227
4.82232,51198
4.8297,54940
4.83707,55192
4.84445,53836
4.85183,49992
4.8592,58645
4.86658,92602
4.87395,135718
4.88133,159897
4.8887,141091
4.89608,109603
4.90347,84640
4.91083,67787
4.91822,59435
4.92558,56196
4.93297,58217
4.94033,63683
4.94772,64187
4.9551,62357
4.96247,57150
4.96985,56155
4.97722,57692
4.9846,66608
4.99198,97728
4.99935,144231
5.00673,173242
5.0141,158501
5.02148,120235
5.02885,87178
5.03623,63007
5.04362,53361
5.05098,49730
5.05837,47883
5.06573,47005
5.07312,48085
5.0805,45821
5.08787,44654
5.09525,42774
5.10262,41990
5.11,40542
5.11737,40168
5.12475,40084
5.13213,39507
5.1395,41484
5.14688,41197
5.15425,41454
5.16163,43806
5.16902,44524
5.17638,45364
5.18377,45818
5.19113,46119
5.19852,44051
5.20588,43630
5.21327,43022
5.22065,42629
5.22802,41682
5.2354,41556
5.24277,41135
5.25015,39698
5.25753,42221
5.2649,43705
5.27228,44077
5.27965,45397
5.28703,45092
5.2944,45533
5.30178,47568
5.30917,54331
5.31653,64190
5.32392,67587
5.33128,61303
5.33867,55918
5.34605,49640
5.35342,47442
5.3608,47245
5.36817,48913
5.37555,47486
5.38292,46857
5.3903,45020
5.39768,47028
5.40505,46120
5.41243,48622
5.4198,48160
5.42718,49537
5.43457,55937
5.44193,64534
5.44932,67511
5.45668,61959
5.46407,57307
5.47143,53895
5.47882,51369
5.4862,49056
5.49357,51213
5.50095,54451
5.50832,55017
5.5157,54582
5.52307,50404
5.53045,48424
5.53783,46150
5.5452,46302
5.55258,49967
5.55995,53715
5.56733,58725
5.57472,60686
5.58208,62199
5.58947,62563
5.59683,67207
5.60422,78233
5.61158,86518
5.61897,108034
5.62635,134867
5.63372,141996
5.6411,121031
5.64847,95305
5.65585,75180
5.66323,66415
5.6706,72725
5.67798,81337
5.68535,79089
5.69273,71386
5.7001,68185
5.70748,69144
5.71487,72401
5.72223,76570
5.72962,81187
5.73698,82960
5.74437,80421
5.75175,73307
5.75912,68512
5.7665,76727
5.77387,83165
5.78125,84140
5.78862,81447
5.796,83247
5.80338,87064
5.81075,89073
5.81813,90301
5.8255,94733
5.83288,93897
5.84027,84755
5.84763,79133
5.85502,79486
5.86238,77584
5.86977,65688
5.87713,60721
5.88452,58929
5.8919,62068
5.89927,62203
5.90665,60103
5.91402,57483
5.9214,56167
5.92878,56156
5.93615,56414
5.94353,57886
5.9509,56810
5.95828,54669
5.96565,56211
5.97303,61319
5.98042,76712
5.98778,87437
5.99517,83680
6.00253,71281
6.00992,62109
6.0173,64791
6.02467,106157
6.03205,197415
6.03942,217798
6.0468,142149
6.05417,87745
6.06155,71072
6.06893,66217
6.0763,63324
6.08368,58524
6.09105,55182
6.09843,59279
6.1058,62433
6.11318,63425
6.12057,73681
6.12793,86137
6.13532,79971
6.14268,64918
6.15007,61622
6.15745,79778
6.16482,158363
6.1722,250266
6.17957,208204
6.18695,114069
6.19432,70651
6.2017,60117
6.20908,56828
6.21645,57297
6.22383,57104
6.2312,55722
6.23858,51610
6.24597,49455
6.25333,47065
6.26072,45658
6.26808,45173
6.27547,45045
6.28283,46108
6.29022,49600
6.2976,51802
6.30497,50010
6.31235,49706
6.31972,51019
6.3271,52808
6.33448,50363
6.34185,47850
6.34923,46304
6.3566,45006
6.36398,45412
6.37135,49744
6.37873,53131
6.38612,53708
6.39348,50484
6.40087,48622
6.40823,51534
6.41562,67576
6.423,81198
6.43037,77670
6.43775,65556
6.44512,57858
6.4525,49983
6.45987,48285
6.46725,46220
6.47463,48940
6.482,52141
6.48938,55402
6.49675,54080
6.50413,51036
6.51152,50884
6.51888,50458
6.52627,53326
6.53363,56658
6.54102,54087
6.54838,53776
6.55577,54361
6.56315,53225
6.57052,49540
6.5779,47163
6.58527,46404
6.59265,47387
6.60003,50199
6.6074,51612
6.61478,53239
6.62215,65804
6.62953,74346
6.6369,63606
6.64428,50526
6.65167,47356
6.65903,44689
6.66642,44881
6.67378,48645
6.68117,54434
6.68853,59473
6.69592,74214
6.7033,76330
6.71067,64398
6.71805,53254
6.72542,49583
6.7328,54696
6.74018,76440
6.74755,94315
6.75493,80874
6.7623,70774
6.76968,65928
6.77705,62090
6.78443,64744
6.79182,72950
6.79918,73922
6.80657,63086
6.81393,79089
6.82132,99343
6.8287,91148
6.83607,71579
6.84345,57786
6.85082,57502
6.8582,61926
6.86557,75474
6.87295,90981
6.88033,92301
6.8877,97501
6.89508,114665
6.90245,115052
6.90983,89768
6.91722,71745
6.92458,67674
6.93197,76768
6.93933,97099
6.94672,102811
6.95408,94107
6.96147,83897
6.96885,81169
6.97622,73229
6.9836,59056
6.99097,54242
6.99835,56647
7.00573,59020
7.0131,54384
7.02048,49766
7.02785,51338
7.03523,52799
7.0426,55887
7.04998,58433
7.05737,53750
7.06473,52400
7.07212,52390
7.07948,58266
7.08687,70459
7.09425,68176
7.10162,55231
7.109,49539
7.11637,52533
7.12375,67527
7.13112,119232
7.1385,226024
7.14588,228045
7.15325,118197
7.16063,69181
7.168,59624
7.17538,58075
7.18277,55728
7.19013,54995
7.19752,59672
7.20488,79932
7.21227,111615
7.21963,111613
7.22702,73652
7.2344,56917
7.24177,54400
7.24915,57440
7.25652,60598
7.2639,102016
7.27127,259114
7.27865,323896
7.28603,192610
7.2934,103194
7.30078,77662
7.30815,68951
7.31553,64436
7.32292,61254
7.33028,59375
7.33767,58797
7.34503,57472
7.35242,59257
7.35978,70231
7.36717,72422
7.37455,64936
7.38192,59412
7.3893,60633
7.39667,65591
7.40405,68518
7.41143,62626
7.4188,58674
7.42618,57641
7.43355,58297
7.44093,58463
7.4483,59659
7.45568,65359
7.46307,64951
7.47043,59496
7.47782,55079
7.48518,53153
7.49257,52424
7.49995,56725
7.50732,60257
7.5147,57567
7.52207,60458
7.52945,58669
7.53682,57841
7.5442,53839
7.55158,50820
7.55895,51500
7.56633,54745
7.5737,59925
7.58108,65644
7.58847,63545
7.59583,57737
7.60322,58969
7.61058,56445
7.61797,57331
7.62533,59659
7.63272,59184
7.6401,55954
7.64747,54728
7.65485,59916
7.66222,71384
7.6696,77074
7.67698,76269
7.68435,72352
7.69173,71763
7.6991,84814
7.70648,102688
7.71385,97459
7.72123,85463
7.72862,75902
7.73598,76447
7.74337,75547
7.75073,76180
7.75812,88347
7.7655,109125
7.77287,95582
7.78025,71885
7.78762,63048
7.795,61795
7.80237,64056
7.80975,76934
7.81713,101132
7.8245,101508
7.83188,85632
7.83925,77036
7.84663,75676
7.854,75252
7.86138,72908
7.86877,88478
7.87613,119762
7.88352,120827
7.89088,98476
7.89827,82146
7.90565,78055
7.91302,92244
7.9204,97684
7.92777,82226
7.93515,73023
7.94252,88673
7.9499,102974
7.95728,91709
7.96465,77396
7.97203,77946
7.9794,82452
7.98678,70873
7.99417,61866
8.00153,58085
8.00892,57473
8.01628,65775
8.02367,81907
8.03103,83480
8.03842,67323
8.0458,61726
8.05317,60981
8.06055,63955
8.06792,65403
8.0753,66945
8.08268,64122
8.09005,60589
8.09743,60265
8.1048,61037
8.11218,61026
8.11955,63694
8.12693,74908
8.13432,74120
8.14168,68840
8.14907,72411
8.15643,78777
8.16382,92203
8.1712,175709
8.17857,264372
8.18595,177897
8.19332,94152
8.2007,74613
8.20807,69455
8.21545,65702
8.22283,70405
8.2302,91953
8.23758,106906
8.24495,86081
8.25233,63999
8.25972,59504
8.26708,59556
8.27447,60354
8.28183,62538
8.28922,67374
8.29658,91106
8.30397,212322
8.31135,351771
8.31872,235884
8.3261,99432
8.33347,71071
8.34085,69653
8.34823,64753
8.3556,62347
8.36298,65169
8.37035,66183
8.37773,70515
8.3851,75426
8.39248,81027
8.39987,71622
8.40723,62982
8.41462,60094
8.42198,59163
8.42937,61321
8.43673,65092
8.44412,68219
8.4515,70440
8.45887,76337
8.46625,75291
8.47362,73600
8.481,73698
8.48838,75269
8.49575,73474
8.50313,67603
8.5105,66147
8.51788,65803
8.52525,75530
8.53263,87460
8.54002,81286
8.54738,67603
8.55477,61610
8.56213,61388
8.56952,64092
8.5769,65640
8.58427,67508
8.59165,70840
8.59902,72157
8.6064,72864
8.61377,68208
8.62115,62605
8.62853,64630
8.6359,64505
8.64328,67614
8.65065,70459
8.65803,74411
8.66542,74761
8.67278,75417
8.68017,75473
8.68753,74167
8.69492,70204
8.70228,75531
8.70967,92229
8.71705,101159
8.72442,92391
8.7318,82508
8.73917,74683
8.74655,71043
8.75393,80328
8.7613,90529
8.76868,90270
8.77605,91639
8.78343,88178
8.7908,82931
8.79818,83848
8.80557,99026
8.81293,101563
8.82032,98483
8.82768,103411
8.83507,105158
8.84245,97879
8.84982,96975
8.8572,111678
8.86457,115770
8.87195,103424
8.87932,93110
8.8867,84923
8.89408,82255
8.90145,92110
8.90883,90838
8.9162,83430
8.92358,86061
8.93097,94481
8.93833,102690
8.94572,104018
8.95308,94119
8.96047,91307
8.96783,87795
8.97522,83785
8.9826,74530
8.98997,66521
8.99735,66254
9.00472,72116
9.0121,87254
9.01947,88128
9.02685,87565
9.03423,86930
9.0416,79624
9.04898,72915
9.05635,69226
9.06373,70611
9.07112,72125
9.07848,70205
9.08587,68170
9.09323,75802
9.10062,86347
9.10798,85499
9.11537,83537
9.12275,90315
9.13012,91337
9.1375,105859
9.14487,195176
9.15225,272864
9.15963,186903
9.167,98303
9.17438,79211
9.18175,80046
9.18913,87354
9.1965,91071
9.20388,80166
9.21127,72445
9.21863,70492
9.22602,70332
9.23338,72769
9.24077,73494
9.24815,74935
9.25552,72176
9.2629,78361
9.27027,128530
9.27765,297997
9.28502,354352
9.2924,192754
9.29978,107824
9.30715,88281
9.31453,82579
9.3219,72849
9.32928,71185
9.33667,75409
9.34403,85555
9.35142,92084
9.35878,85752
9.36617,80827
9.37353,81383
9.38092,82972
9.3883,88228
9.39567,88929
9.40305,92260
9.41042,93836
9.4178,98254
9.42518,93746
9.43255,84518
9.43993,84990
9.4473,87697
9.45468,86565
9.46205,80741
9.46943,74420
9.47682,76466
9.48418,76315
9.49157,78664
9.49893,80699
9.50632,81909
9.5137,81555
9.52107,79614
9.52845,84046
9.53582,93569
9.5432,90705
9.55057,81602
9.55795,78006
9.56533,79945
9.5727,78483
9.58008,75874
9.58745,75474
9.59483,80723
9.60222,81043
9.60958,82671
9.61697,89880
9.62433,106490
9.63172,108461
9.63908,95131
9.64647,93069
9.65385,103192
9.66122,110645
9.6686,101646
9.67597,83969
9.68335,77110
9.69072,77606
9.6981,83996
9.70548,87282
9.71285,80119
9.72023,76524
9.7276,91662
9.73498,119079
9.74237,122752
9.74973,111651
9.75712,102242
9.76448,104182
9.77187,115900
9.77923,110686
9.78662,98917
9.794,96937
9.80137,100655
9.80875,103381
9.81612,100054
9.8235,98712
9.83088,110211
9.83825,106943
9.84563,91830
9.853,92399
9.86038,101797
9.86775,107912
9.87513,111677
9.88252,103559
9.88988,97764
9.89727,91725
9.90463,83135
9.91202,80782
9.9194,74592
9.92677,76244
9.93415,85319
9.94152,94638
9.9489,86870
9.95627,81043
9.96365,87354
9.97103,92010
9.9784,88134
9.98578,78444
9.99315,73912
10.0005,77849
10.0079,84861
10.0153,97921
10.0227,106689
10.03,104901
10.0374,92657
10.0448,87377
10.0522,96879
10.0596,171099
10.0669,288604
10.0743,237259
10.0817,134726
10.0891,113343
10.0964,113058
10.1038,100281
10.1112,92360
10.1186,88324
10.1259,86839
10.1333,85564
10.1407,82358
10.1481,94991
10.1554,142280
10.1628,170658
10.1702,132363
10.1776,108097
10.185,163189
10.1923,334345
10.1997,375831
10.2071,201407
10.2145,116753
10.2218,104817
10.2292,98014
10.2366,90059
10.244,92432
10.2513,103706
10.2587,106412
10.2661,96196
10.2735,88628
10.2808,90497
10.2882,90755
10.2956,91325
10.303,90652
10.3103,88233
10.3177,91534
10.3251,90639
10.3325,90602
10.3399,94245
10.3472,91908
10.3546,90235
10.362,89675
10.3694,95132
10.3767,90603
10.3841,86956
10.3915,86903
10.3989,89257
10.4062,94311
10.4136,90614
10.421,96245
10.4284,97903
10.4357,90882
10.4431,86698
10.4505,88743
10.4579,86301
10.4653,85965
10.4726,89157
10.48,90874
10.4874,94763
10.4948,103510
10.5021,113140
10.5095,109522
10.5169,100896
10.5243,101232
10.5316,109061
10.539,114608
10.5464,106419
10.5538,101091
10.5611,109544
10.5685,119375
10.5759,120144
10.5833,119058
10.5907,120079
10.598,114640
10.6054,102833
10.6128,100504
10.6202,108719
10.6275,114939
10.6349,119808
10.6423,127131
10.6497,124614
10.657,114080
10.6644,114893
10.6718,115627
10.6792,115745
10.6865,116808
10.6939,114317
10.7013,117316
10.7087,118344
10.716,107520
10.7234,100262
10.7308,108137
10.7382,120803
10.7456,123731
10.7529,136363
10.7603,131525
10.7677,113499
10.7751,99314
10.7824,91936
10.7898,89858
10.7972,91085
10.8046,94544
10.8119,101487
10.8193,109689
10.8267,106442
10.8341,105229
10.8414,101548
10.8488,101538
10.8562,102935
10.8636,97988
10.871,96553
10.8783,111955
10.8857,128476
10.8931,116782
10.9005,106485
10.9078,111725
10.9152,126205
10.9226,195948
10.93,318101
10.9373,293650
10.9447,190035
10.9521,141043
10.9595,118218
10.9668,103018
10.9742,100015
10.9816,101466
10.989,99789
10.9964,103636
11.0037,116372
11.0111,121475
11.0185,121034
11.0259,113145
11.0332,103289
11.0406,114255
11.048,212907
11.0554,417862
11.0627,397920
11.0701,200852
11.0775,121706
11.0849,110334
11.0922,108139
11.0996,102946
11.107,109658
11.1144,119644
11.1217,118734
11.1291,109994
11.1365,110712
11.1439,110601
11.1513,107788
11.1586,104574
11.166,102746
11.1734,101098
11.1808,102621
11.1881,108741
11.1955,112427
11.2029,111928
11.2103,104642
11.2176,95951
11.225,96168
11.2324,103290
11.2398,103885
11.2471,105876
11.2545,103439
11.2619,104830
11.2693,105973
11.2767,106252
11.284,103647
11.2914,100657
11.2988,98176
11.3062,101032
11.3135,110005
11.3209,130426
11.3283,137366
11.3357,129177
11.343,126720
11.3504,123678
11.3578,121199
11.3652,125206
11.3725,124422
11.3799,115561
11.3873,103838
11.3947,107203
11.4021,124677
11.4094,159066
11.4168,164277
11.4242,140217
11.4316,125304
11.4389,115973
11.4463,119031
11.4537,144734
11.4611,153375
11.4684,141391
11.4758,134019
11.4832,124300
11.4906,130392
11.4979,129112
11.5053,118721
11.5127,120739
11.5201,129292
11.5274,137532
11.5348,144663
11.5422,142568
11.5496,134640
11.557,132701
11.5643,134318
11.5717,136283
11.5791,140835
11.5865,135434
11.5938,122810
11.6012,114993
11.6086,114981
11.616,120422
11.6233,123289
11.6307,123127
11.6381,125977
11.6455,136017
11.6528,128157
11.6602,117940
11.6676,111992
11.675,112792
11.6824,118524
11.6897,136430
11.6971,143697
11.7045,143130
11.7119,131100
11.7192,121329
11.7266,116317
11.734,141604
11.7414,267210
11.7487,434636
11.7561,350314
11.7635,194174
11.7709,145915
11.7782,134685
11.7856,131667
11.793,128111
11.8004,133443
11.8078,138590
11.8151,137096
11.8225,132720
11.8299,133221
11.8373,130353
11.8446,129099
11.852,133690
11.8594,176800
11.8668,340073
11.8741,423565
11.8815,290956
11.8889,172306
11.8963,149123
11.9036,135438
11.911,129095
11.9184,128910
11.9258,139693
11.9332,151288
11.9405,148327
11.9479,147042
11.9553,140665
11.9627,137048
11.97,128713
11.9774,129099
11.9848,127868
11.9922,130783
11.9995,132110
12.0069,131841
12.0143,129856
12.0217,131184
12.029,134794
12.0364,139642
12.0438,140287
12.0512,137198
12.0585,132997
12.0659,135035
12.0733,133843
12.0807,138574
12.0881,149821
12.0954,169516
12.1028,189484
12.1102,195848
12.1176,205283
12.1249,232690
12.1323,229208
12.1397,203688
12.1471,190188
12.1544,181831
12.1618,167675
12.1692,152912
12.1766,152271
12.1839,168418
12.1913,182355
12.1987,193480
12.2061,187961
12.2135,188337
12.2208,195193
12.2282,210446
12.2356,255200
12.243,266471
12.2503,221244
12.2577,200527
12.2651,195200
12.2725,184176
12.2798,189569
12.2872,206674
12.2946,229575
12.302,237009
12.3093,206469
12.3167,192023
12.3241,194077
12.3315,201980
12.3389,206907
12.3462,213853
12.3536,215261
12.361,213995
12.3684,214190
12.3757,196019
12.3831,184223
12.3905,183600
12.3979,190292
12.4052,189440
12.4126,195861
12.42,208680
12.4274,222381
12.4347,229449
12.4421,231771
12.4495,222618
12.4569,215449
12.4642,221866
12.4716,225464
12.479,238418
12.4864,248514
12.4938,277685
12.5011,474264
12.5085,948643
12.5159,1103711
12.5233,737130
12.5306,435955
12.538,315242
12.5454,359991
12.5528,579848
12.5601,737874
12.5675,597372
12.5749,416893
12.5823,355959
12.5896,329776
12.597,318549
12.6044,315727
12.6118,319319
12.6192,325728
12.6265,312981
12.6339,358563
12.6413,507842
12.6487,569000
12.656,407962
12.6634,310149
12.6708,294122
12.6782,314823
12.6855,334708
12.6929,338341
12.7003,337849
12.7077,348043
12.715,341127
12.7224,341421
12.7298,342184
12.7372,319958
12.7446,301669
12.7519,314996
12.7593,330811
12.7667,371061
12.7741,394110
12.7814,366215
12.7888,336139
12.7962,339727
12.8036,341098
12.8109,337460
12.8183,389231
12.8257,546819
12.8331,689742
12.8404,720169
12.8478,673753
12.8552,625749
12.8626,588408
12.8699,499478
12.8773,459420
12.8847,564989
12.8921,670846
12.8995,672593
12.9068,610214
12.9142,512836
12.9216,481209
12.929,618565
12.9363,785722
12.9437,717710
12.9511,553237
12.9585,516564
12.9658,638761
12.9732,924483
12.9806,1048233
12.988,821300
12.9953,651317
13.0027,659118
13.0101,692049
13.0175,661153
13.0249,674553
13.0322,919087
13.0396,1012697
13.047,769675
13.0544,608948
13.0617,595407
13.0691,656375
13.0765,697763
13.0839,668616
13.0912,639224
13.0986,684492
13.106,709291
13.1134,748482
13.1207,782066
13.1281,766780
13.1355,712662
13.1429,696802
13.1503,743729
13.1576,805315
13.165,797894
13.1724,800533
13.1798,806360
13.1871,815348
13.1945,828472
13.2019,869001
13.2093,895639
13.2166,944914
13.224,1262874
13.2314,2620532
13.2388,4988729
13.2461,4833569
13.2535,2242508
13.2609,1186781
13.2683,1201506
13.2756,1236979
13.283,1192274
13.2904,1222208
13.2978,1545542
13.3052,2343193
13.3125,3220713
13.3199,3136278
13.3273,2223862
13.3347,1580284
13.342,1304435
13.3494,1133039
13.3568,1159600
13.3642,1146853
13.3715,1177973
13.3789,1310482
13.3863,1418672
13.3937,1352073
13.401,1284920
13.4084,1218125
13.4158,1136399
13.4232,1131762
13.4306,1208843
13.4379,1305850
13.4453,1326318
13.4527,1275583
13.4601,1195819
13.4674,1152491
13.4748,1257306
13.4822,1425699
13.4896,1581643
13.4969,1508677
13.5043,1408567
13.5117,1332395
13.5191,1380935
13.5264,1752020
13.5338,2373192
13.5412,2476349
13.5486,2314930
13.556,2150687
13.5633,2199506
13.5707,2192781
13.5781,1877266
13.5855,1697588
13.5928,1822258
13.6002,2053137
13.6076,1973735
13.615,1729695
13.6223,1734616
13.6297,1737365
13.6371,1967819
13.6445,2464538
13.6518,2490225
13.6592,2033324
13.6666,1934083
13.674,2336380
13.6814,3016568
13.6887,2762880
13.6961,2065477
13.7035,2072873
13.7109,2258647
13.7182,2204466
13.7256,1961936
13.733,2324417
13.7404,3396081
13.7477,3491691
13.7551,2523378
13.7625,2018888
13.7699,1994010
13.7772,2031465
13.7846,2057695
13.792,2167478
13.7994,2377997
13.8067,2466293
13.8141,2490132
13.8215,2359704
13.8289,2269309
13.8363,2326024
13.8436,2403780
13.851,2410716
13.8584,2384879
13.8658,2385182
13.8731,2630559
13.8805,3197391
13.8879,3706415
13.8953,3713459
13.9026,3167126
13.91,2685350
13.9174,2967244
13.9248,4711849
13.9321,8399772
13.9395,11948978
13.9469,10381045
13.9543,4374893
13.9617,3285814
13.969,3266497
13.9764,2922453
13.9838,2890889
13.9912,3202246
13.9985,3456229
14.0059,3614494
14.0133,3523789
14.0207,3484339
14.028,3485894
14.0354,3612868
14.0428,3723457
14.0502,3573877
14.0575,3315442
14.0649,3272257
14.0723,3487214
14.0797,3626094
14.0871,3435933
14.0944,3074409
14.1018,2927814
14.1092,3139211
14.1166,3421739
14.1239,3351068
14.1313,3141919
14.1387,3081198
14.1461,3125864
14.1534,3311749
14.1608,3516040
14.1682,3645108
14.1756,3489007
14.1829,3477971
14.1903,3807412
14.1977,4678470
14.2051,5523014
14.2124,5464613
14.2198,5169022
14.2272,4896225
14.2346,4756251
14.242,5031608
14.2493,4699692
14.2567,4093682
14.2641,4249731
14.2715,4911445
14.2788,4730530
14.2862,3917624
14.2936,3756241
14.301,3947556
14.3083,4635297
14.3157,5643648
14.3231,5358146
14.3305,4522557
14.3378,4809176
14.3452,6076539
14.3526,6134177
14.36,4805159
14.3674,4427339
14.3747,4626790
14.3821,4487969
14.3895,4627459
14.3969,5825955
14.4042,6748591
14.4116,6016361
14.419,4935666
14.4264,5204002
14.4337,5804717
14.4411,5424520
14.4485,4987927
14.4559,4930812
14.4632,5245949
14.4706,5480778
14.478,5824372
14.4854,5715493
14.4928,5325443
14.5001,5309392
14.5075,5337634
14.5149,5146792
14.5223,5049501
14.5296,5080899
14.537,5026634
14.5444,5124755
14.5518,5555640
14.5591,7047723
14.5665,10189646
14.5739,14495279
14.5813,17404462
14.5886,14843706
14.596,7348828
14.6034,6098421
14.6108,5928283
14.6181,5950542
14.6255,6151872
14.6329,6133054
14.6403,6346470
14.6477,6651401
14.655,6512787
14.6624,6288212
14.6698,6368393
14.6772,6747622
14.6845,7258010
14.6919,7083649
14.6993,6753283
14.7067,6226873
14.714,6171495
14.7214,5998065
14.7288,5900522
14.7362,5625151
14.7435,5649216
14.7509,5847510
14.7583,5786134
14.7657,5789798
14.7731,6068055
14.7804,6562014
14.7878,7295388
14.7952,8587402
14.8026,9286538
14.8099,8992321
14.8173,8378463
14.8247,8082707
14.8321,8126962
14.8394,8430711
14.8468,7835340
14.8542,6941062
14.8616,7503722
14.8689,8089764
14.8763,7464685
14.8837,6665454
14.8911,6633691
14.8985,7631964
14.9058,8669237
14.9132,8245538
14.9206,7490766
14.928,8320422
14.9353,9436455
14.9427,8415599
14.9501,7176798
14.9575,7165507
14.9648,6951304
14.9722,7084809
14.9796,8712429
14.987,10232524
14.9943,9743780
15.0017,9194477
15.0091,9280432
15.0165,8965829
15.0239,8670326
15.0312,9127596
15.0386,9060266
15.046,8293607
15.0534,8340382
15.0607,8191345
15.0681,8142803
15.0755,7703028
15.0829,7592681
15.0902,7579259
15.0976,7569729
15.105,7502993
15.1124,7742942
15.1197,9558016
15.1271,13648449
15.1345,17701072
15.1419,19601138
15.1492,16481785
15.1566,9185369
15.164,8267719
15.1714,8456280
15.1788,8835198
15.1861,8963634
15.1935,8508851
15.2009,8427076
15.2083,9144298
15.2156,9606589
15.223,9439155
15.2304,8955882
15.2378,9089769
15.2451,9029706
15.2525,8769516
15.2599,8686100
15.2673,8668089
15.2746,8362063
15.282,7968479
15.2894,8243062
15.2968,8901756
15.3042,9601417
15.3115,9646802
15.3189,9676773
15.3263,10995782
15.3337,11721948
15.341,11648992
15.3484,11216152
15.3558,10458514
15.3632,10252415
15.3705,10431287
15.3779,9174427
15.3853,9283590
15.3927,9964473
15.4,9550560
15.4074,8977605
15.4148,9211562
15.4222,10157764
15.4296,10603223
15.4369,9834658
15.4443,10314764
15.4517,11466016
15.4591,10332390
15.4664,9165821
15.4738,9376698
15.4812,9554594
15.4886,9932949
15.4959,11152224
15.5033,11341156
15.5107,9901504
15.5181,9998566
15.5254,10380596
15.5328,9997885
15.5402,10202851
15.5476,10276141
15.5549,10725074
15.5623,11185366
15.5697,10331442
15.5771,9450128
15.5845,9144808
15.5918,9040596
15.5992,9094483
15.6066,9269319
15.614,10347098
15.6213,13688432
15.6287,16944726
15.6361,18955256
15.6435,16667616
15.6508,10627145
15.6582,10092736
15.6656,10054849
15.673,10529210
15.6803,10770912
15.6877,10552859
15.6951,10411346
15.7025,9973390
15.7099,10124983
15.7172,10756538
15.7246,10689355
15.732,10195972
15.7394,10355687
15.7467,10265386
15.7541,9845710
15.7615,9586445
15.7689,9494751
15.7762,9502913
15.7836,9804367
15.791,11544272
15.7984,13498006
15.8057,13770163
15.8131,12471650
15.8205,11531047
15.8279,11033165
15.8353,11461473
15.8426,11650841
15.85,10405365
15.8574,10646409
15.8648,10519606
15.8721,9882939
15.8795,9862390
15.8869,10827297
15.8943,11194825
15.9016,10819279
15.909,11469994
15.9164,12091935
15.9238,10813031
15.9311,10228409
15.9385,10323833
15.9459,10390770
15.9533,11210618
15.9606,11645518
15.968,10530049
15.9754,10067878
15.9828,10465634
15.9902,10925550
15.9975,10882399
16.0049,10440082
16.0123,9909360
16.0196,9749006
16.027,10265887
16.0344,10962709
16.0418,10570648
16.0492,9799573
16.0565,9620350
16.0639,11802044
16.0713,15370915
16.0787,17386794
16.086,16522435
16.0934,11080371
16.1008,9863305
16.1082,9794139
16.1155,10821363
16.1229,11003587
16.1303,10541633
16.1377,10087055
16.1451,9916447
16.1524,10478472
16.1598,10783942
16.1672,10481087
16.1746,9954272
16.1819,9896415
16.1893,9826788
16.1967,9471568
16.2041,9220618
16.2114,9355040
16.2188,9930172
16.2262,11210545
16.2336,12069405
16.241,11608621
16.2483,11118636
16.2557,10816990
16.2631,10569077
16.2705,10628088
16.2778,10250791
16.2852,9694971
16.2926,10021519
16.2999,9942178
16.3073,8941904
16.3147,8539700
16.3221,9186052
16.3295,9804531
16.3368,9584912
16.3442,10104834
16.3516,10205394
16.359,9542931
16.3663,9008729
16.3737,8915625
16.3811,9001534
16.3885,9556820
16.3958,9947437
16.4032,9394989
16.4106,8847196
16.418,8751928
16.4254,8549021
16.4327,8569494
16.4401,8939374
16.4475,9049816
16.4549,8612557
16.4622,8082325
16.4696,7727809
16.477,7836898
16.4844,8153831
16.4917,8634967
16.4991,9100454
16.5065,10626329
16.5139,13200839
16.5212,14841609
16.5286,13769699
16.536,9440059
16.5434,8180996
16.5508,8356974
16.5581,8933718
16.5655,8951082
16.5729,8485749
16.5802,8022007
16.5876,7787480
16.595,7602396
16.6024,7693458
16.6098,7721433
16.6171,7574418
16.6245,7716519
16.6319,7856668
16.6393,7692763
16.6467,7193000
16.654,7109491
16.6614,7430993
16.6688,8270503
16.6762,9364236
16.6835,9727198
16.6909,9058732
16.6983,8557225
16.7056,8115560
16.713,7720374
16.7204,7594942
16.7278,7962568
16.7352,7762906
16.7425,7363982
16.7499,7395885
16.7573,7054486
16.7647,6550105
16.7721,6452161
16.7794,7072729
16.7868,7394408
16.7942,7315448
16.8015,7301160
16.8089,7605645
16.8163,7310600
16.8237,6763270
16.8311,6395794
16.8384,6445355
16.8458,6531317
16.8532,6969369
16.8606,7386829
16.8679,7236591
16.8753,6605006
16.8827,6240532
16.8901,5876392
16.8974,5808709
16.9048,5935697
16.9122,6088467
16.9196,6104438
16.927,5993140
16.9343,5788739
16.9417,5609852
16.9491,5580851
16.9565,5542237
16.9638,5414369
16.9712,5730372
16.9786,7427118
16.9859,10179635
16.9933,11445161
17.0007,9695648
17.0081,6724538
17.0155,5676631
17.0228,5610612
17.0302,5974064
17.0376,5982129
17.045,5517079
17.0524,5263404
17.0597,5217111
17.0671,5026869
17.0745,4969453
17.0818,4887066
17.0892,4792980
17.0966,4609582
17.104,4623174
17.1114,4633045
17.1187,4626178
17.1261,4589805
17.1335,4458572
17.1409,4532304
17.1482,4718825
17.1556,5373417
17.163,5911308
17.1704,5926614
17.1778,5639688
17.1851,5196149
17.1925,4972185
17.1999,4717095
17.2072,4453774
17.2146,4439778
17.222,4512596
17.2294,4252582
17.2368,4077988
17.2441,4091149
17.2515,4142646
17.2589,4025968
17.2663,3923540
17.2736,3950482
17.281,4038422
17.2884,4210342
17.2958,4236505
17.3031,4190246
17.3105,4327046
17.3179,4357620
17.3253,4033675
17.3327,3719922
17.34,3624312
17.3474,3580261
17.3548,3611389
17.3622,3747075
17.3695,3873093
17.3769,3879798
17.3843,3624690
17.3916,3350251
17.399,3188510
17.4064,3146880
17.4138,3109686
17.4212,3037615
17.4285,3060743
17.4359,3084031
17.4433,3023132
17.4507,2939790
17.4581,2953942
17.4654,2998313
17.4728,3047464
17.4802,2943388
17.4876,2857298
