D:\Data GC-MS\2018\STD 2018\HPD\SOLER HASSAKA ENERZOL LQ.D 09 Jan 18  01:37 pm
Start of data points
1.29383,1299831
1.30057,1541529
1.30732,1639168
1.31407,1670627
1.3208,1662007
1.32755,1630024
1.33428,1590446
1.34103,1539877
1.34777,1491356
1.35452,1430346
1.36127,1374192
1.368,1318992
1.37475,1261328
1.38148,1198003
1.38823,1137067
1.39497,1082218
1.40172,1024959
1.40845,969115
1.4152,914629
1.42195,862705
1.42868,812851
1.43543,764773
1.44217,721099
1.44892,673764
1.45565,636257
1.4624,592489
1.46915,556169
1.47588,520777
1.48263,487311
1.48937,456445
1.51023,1450827
1.51762,1345881
1.52498,1255047
1.53237,1162826
1.53973,1076339
1.54712,996732
1.55448,922785
1.56187,858221
1.56925,793140
1.57662,734687
1.584,679509
1.59137,631180
1.59875,587853
1.60613,538922
1.6135,501715
1.62088,467043
1.62825,432785
1.63563,403427
1.643,372722
1.65038,346190
1.65777,323323
1.66513,298658
1.67252,280056
1.67988,259086
1.68727,240298
1.69465,226779
1.70202,212672
1.7094,201916
1.71677,186763
1.72415,175679
1.73152,164070
1.7389,155426
1.74628,145232
1.75365,135757
1.76103,128380
1.7684,122371
1.77578,116673
1.78317,111609
1.79053,104683
1.79792,100290
1.80528,95337
1.81267,90996
1.82003,85933
1.82742,81676
1.8348,78459
1.84217,75757
1.84955,72190
1.85692,70529
1.8643,68089
1.87168,65952
1.87905,64300
1.88643,62502
1.8938,59547
1.90118,57664
1.90855,57504
1.91593,55774
1.92332,54259
1.93068,53095
1.93807,52670
1.94543,50767
1.95282,50065
1.9602,49910
1.96757,49458
1.97495,47771
1.98232,47519
1.9897,46529
1.99707,45854
2.00445,45117
2.01183,44995
2.0192,45197
2.02658,43501
2.03395,42876
2.04133,43909
2.0487,43196
2.05608,42344
2.06347,42772
2.07083,42548
2.07822,41568
2.08558,42072
2.09297,41736
2.10035,40048
2.10772,40978
2.1151,41318
2.12247,41051
2.12985,42240
2.13722,40910
2.1446,40774
2.15198,40445
2.15935,39698
2.16673,39743
2.1741,40238
2.18148,40465
2.18887,40035
2.19623,40568
2.20362,41667
2.21098,39556
2.21837,39841
2.22573,39807
2.23312,40737
2.2405,39610
2.24787,39806
2.25525,39782
2.26262,39046
2.27,39451
2.27738,39056
2.28475,38962
2.29213,39666
2.2995,39150
2.30688,39639
2.31425,39010
2.32163,39791
2.32902,39289
2.33638,39735
2.34377,40238
2.35113,40109
2.35852,39489
2.3659,40490
2.37327,39933
2.38065,39781
2.38802,39522
2.3954,40424
2.40277,40142
2.41015,39960
2.41753,40158
2.4249,39480
2.43228,38944
2.43965,40258
2.44703,40161
2.45442,39310
2.46178,40073
2.46917,39332
2.47653,39919
2.48392,38934
2.49128,40208
2.49867,38807
2.50605,39773
2.51342,39954
2.5208,39396
2.52817,40218
2.53555,40954
2.54293,40703
2.5503,39790
2.55768,39298
2.56505,39343
2.57243,39250
2.5798,39416
2.58718,39607
2.59457,39685
2.60193,39232
2.60932,39031
2.61668,39643
2.62407,39837
2.63145,39624
2.63882,38764
2.6462,39903
2.65357,39915
2.66095,39517
2.66832,38668
2.6757,39670
2.68308,38421
2.69045,39238
2.69783,38718
2.7052,39389
2.71258,39582
2.71997,39700
2.72733,39378
2.73472,40188
2.74208,40669
2.74947,40513
2.75683,40762
2.76422,40290
2.7716,39946
2.77897,39409
2.78635,39902
2.79372,39501
2.8011,39103
2.80847,38452
2.81585,39072
2.82323,39031
2.8306,38902
2.83798,38772
2.84535,38087
2.85273,38449
2.86012,38650
2.86748,38386
2.87487,38697
2.88223,38552
2.88962,37583
2.89698,39161
2.90437,38153
2.91175,38278
2.91912,37618
2.9265,39207
2.93387,37969
2.94125,38461
2.94863,39378
2.956,38551
2.96338,38714
2.97075,39158
2.97813,40675
2.9855,40535
2.99288,41166
3.00027,40897
3.00763,40351
3.01502,40267
3.02238,39270
3.02977,38722
3.03715,39302
3.04452,38991
3.0519,39575
3.05927,39719
3.06665,38760
3.07402,38796
3.0814,38945
3.08878,38886
3.09615,38816
3.10353,39303
3.1109,37870
3.11828,38283
3.12567,38273
3.13303,38148
3.14042,37541
3.14778,38859
3.15517,39027
3.16253,38655
3.16992,37923
3.1773,38218
3.18467,38664
3.19205,37608
3.19942,37610
3.2068,38758
3.21418,38078
3.22155,38874
3.22893,38870
3.2363,39525
3.24368,39077
3.25105,39682
3.25843,38184
3.26582,38100
3.27318,38109
3.28057,37947
3.28793,38236
3.29532,38481
3.3027,37677
3.31007,37388
3.31745,37691
3.32482,37179
3.3322,37570
3.33957,38603
3.34695,38552
3.35433,38287
3.3617,38957
3.36908,39196
3.37645,39485
3.38383,38669
3.3912,39380
3.39858,40143
3.40597,42229
3.41333,44324
3.42072,45154
3.42808,45058
3.43547,44951
3.44285,44046
3.45022,43587
3.4576,42808
3.46497,42283
3.47235,41533
3.47972,41247
3.4871,41791
3.49448,42414
3.50185,44877
3.50923,45074
3.5166,43877
3.52398,43105
3.53137,41360
3.53873,40458
3.54612,40259
3.55348,39438
3.56087,39798
3.56823,41591
3.57562,43796
3.583,43247
3.59037,43067
3.59775,42733
3.60512,41856
3.6125,40719
3.61988,39659
3.62725,39564
3.63463,39038
3.642,38376
3.64938,38273
3.65675,38809
3.66413,38218
3.67152,38628
3.67888,39532
3.68627,38867
3.69363,39331
3.70102,39469
3.7084,39842
3.71577,40772
3.72315,39642
3.73052,41705
3.7379,39965
3.74527,39299
3.75265,39103
3.76003,39121
3.7674,38664
3.77478,38204
3.78215,41158
3.78953,54304
3.79692,72465
3.80428,83426
3.81167,79988
3.81903,69971
3.82642,60495
3.83378,52685
3.84117,47044
3.84855,42796
3.85592,41120
3.8633,40765
3.87067,39959
3.87805,39592
3.88543,40146
3.8928,40554
3.90018,39456
3.90755,38877
3.91493,39251
3.9223,38951
3.92968,37456
3.93707,38068
3.94443,38569
3.95182,38519
3.95918,38585
3.96657,38357
3.97393,38591
3.98132,38744
3.9887,38887
3.99607,37921
4.00345,39203
4.01082,38405
4.0182,38643
4.02558,38379
4.03295,38299
4.04033,37560
4.0477,38333
4.05508,40723
4.06245,42867
4.06983,41607
4.07722,41792
4.08458,41141
4.09197,38948
4.09933,38869
4.10672,39736
4.1141,39273
4.12147,41353
4.12885,47445
4.13622,53054
4.1436,52636
4.15097,49247
4.15835,45778
4.16573,43387
4.1731,41524
4.18048,42416
4.18785,44368
4.19523,46359
4.20262,49040
4.20998,58308
4.21737,67877
4.22473,68017
4.23212,61946
4.23948,55710
4.24687,56218
4.25425,61089
4.26162,59890
4.269,56636
4.27637,51334
4.28375,48932
4.29113,47026
4.2985,45446
4.30588,44257
4.31325,43921
4.32063,42202
4.328,41955
4.33538,39844
4.34277,39754
4.35013,40435
4.35752,40865
4.36488,41536
4.37227,42500
4.37965,43637
4.38702,44109
4.3944,43665
4.40177,42379
4.40915,41615
4.41652,41907
4.4239,46897
4.43128,50345
4.43865,49754
4.44603,47374
4.4534,48542
4.46078,59581
4.46817,69195
4.47553,66512
4.48292,56096
4.49028,52025
4.49767,47911
4.50503,47958
4.51242,46931
4.5198,45174
4.52717,43445
4.53455,44205
4.54192,66369
4.5493,115147
4.55667,156985
4.56405,166089
4.57143,128244
4.5788,88786
4.58618,62959
4.59355,50532
4.60093,43157
4.60832,39436
4.61568,40261
4.62307,47410
4.63043,76700
4.63782,144433
4.64518,204595
4.65257,193789
4.65995,136181
4.66732,93561
4.6747,66212
4.68207,53424
4.68945,47107
4.69683,43677
4.7042,46130
4.71158,48120
4.71895,49415
4.72633,47802
4.7337,44691
4.74108,41076
4.74847,40635
4.75583,41092
4.76322,42808
4.77058,42616
4.77797,40612
4.78535,40456
4.79272,43890
4.8001,49958
4.80747,54496
4.81485,65076
4.82222,81211
4.8296,85543
4.83698,77597
4.84435,75324
4.85173,85138
4.8591,95394
4.86648,88074
4.87387,79372
4.88123,79804
4.88862,72125
4.89598,62141
4.90337,56208
4.91073,55609
4.91812,64533
4.9255,85448
4.93287,96060
4.94025,84277
4.94762,64362
4.955,78677
4.96238,302206
4.96975,859280
4.97713,1124334
4.9845,769381
4.99188,365343
4.99925,160036
5.00663,84754
5.01402,54974
5.02138,43241
5.02877,39273
5.03613,37192
5.04352,40600
5.0509,46368
5.05827,54396
5.06565,58584
5.07302,61496
5.0804,71253
5.08777,92936
5.09515,92767
5.10253,73858
5.1099,62822
5.11728,64881
5.12465,67394
5.13203,63565
5.1394,54481
5.14678,47779
5.15417,49113
5.16153,61540
5.16892,75547
5.17628,98364
5.18367,122636
5.19105,114043
5.19842,83184
5.2058,61496
5.21317,54186
5.22055,55515
5.22792,56883
5.2353,68472
5.24268,105099
5.25005,145688
5.25743,167611
5.2648,180234
5.27218,179032
5.27957,141413
5.28693,95174
5.29432,70482
5.30168,79120
5.30907,95698
5.31643,111821
5.32382,109467
5.3312,103774
5.33857,99938
5.34595,100984
5.35332,152321
5.3607,286616
5.36808,498497
5.37545,565763
5.38283,400220
5.3902,259507
5.39758,242779
5.40495,197677
5.41233,138558
5.41972,110796
5.42708,95661
5.43447,102943
5.44183,123171
5.44922,148102
5.4566,228901
5.46397,380984
5.47135,386166
5.47872,236030
5.4861,150019
5.49347,131681
5.50085,122706
5.50823,98634
5.5156,86918
5.52298,91861
5.53035,91703
5.53773,87994
5.54512,71270
5.55248,63110
5.55987,66421
5.56723,70956
5.57462,68100
5.58198,63948
5.58937,56462
5.59675,54439
5.60412,86490
5.6115,176495
5.61887,257920
5.62625,244712
5.63363,184115
5.641,166101
5.64838,141873
5.65575,94418
5.66313,119597
5.6705,267269
5.67788,394881
5.68527,499563
5.69263,704511
5.70002,637111
5.70738,342135
5.71477,399947
5.72213,796574
5.72952,968581
5.7369,688456
5.74427,475380
5.75165,390093
5.75902,317975
5.7664,213158
5.77378,136962
5.78115,95651
5.78853,162952
5.7959,487206
5.80328,832477
5.81065,685864
5.81803,329617
5.82542,133271
5.83278,77494
5.84017,89067
5.84753,112403
5.85492,155825
5.8623,192946
5.86967,169488
5.87705,126192
5.88442,115567
5.8918,118302
5.89917,108993
5.90655,90248
5.91393,76493
5.9213,67914
5.92868,73345
5.93605,127531
5.94343,314726
5.95082,460925
5.95818,354328
5.96557,248790
5.97293,288789
5.98032,335012
5.98768,290189
5.99507,217873
6.00245,216992
6.00982,224958
6.0172,200261
6.02457,159495
6.03195,116873
6.03933,105841
6.0467,126430
6.05408,130061
6.06145,100087
6.06883,86090
6.0762,75611
6.08358,71501
6.09097,191997
6.09833,600649
6.10572,953153
6.11308,1179217
6.12047,2631654
6.12785,4001599
6.13522,2678018
6.1426,682085
6.14997,173494
6.15735,103078
6.16472,91670
6.1721,111245
6.17948,119905
6.18685,95114
6.19423,70695
6.2016,63479
6.20898,55607
6.21637,62179
6.22373,88506
6.23112,108539
6.23848,103346
6.24587,81667
6.25323,93796
6.26062,126342
6.268,132033
6.27537,161033
6.28275,239224
6.29012,258268
6.2975,206183
6.30487,165236
6.31225,149127
6.31963,149258
6.327,166996
6.33438,165150
6.34175,189169
6.34913,241020
6.35652,223991
6.36388,204537
6.37127,310216
6.37863,654834
6.38602,738503
6.39338,364425
6.40077,139608
6.40815,142455
6.41552,203756
6.4229,198855
6.43027,269513
6.43765,522874
6.44503,614468
6.4524,444464
6.45978,264457
6.46715,158703
6.47453,106132
6.4819,95336
6.48928,116856
6.49667,139069
6.50403,166170
6.51142,245221
6.51878,331441
6.52617,355156
6.53355,256658
6.54092,170526
6.5483,206611
6.55567,346731
6.56305,434805
6.57042,312051
6.5778,179196
6.58518,135205
6.59255,136617
6.59993,182050
6.6073,186496
6.61468,135006
6.62207,95824
6.62943,84698
6.63682,89249
6.64418,92091
6.65157,77648
6.65893,74194
6.66632,104754
6.6737,155017
6.68107,178810
6.68845,167352
6.69582,153448
6.7032,175453
6.71058,186607
6.71795,248126
6.72533,327613
6.7327,324799
6.74008,374845
6.74745,397661
6.75483,452009
6.76222,516288
6.76958,323225
6.77697,187625
6.78433,308250
6.79172,598541
6.7991,700452
6.80647,416234
6.81385,319267
6.82122,486012
6.8286,671304
6.83597,682242
6.84335,359850
6.85073,149633
6.8581,175910
6.86548,257505
6.87285,227889
6.88023,145945
6.8876,110080
6.89498,199165
6.90237,516318
6.90973,666990
6.91712,518592
6.92448,458441
6.93187,306966
6.93925,161742
6.94662,113461
6.954,95893
6.96137,86249
6.96875,82684
6.97612,88717
6.9835,110522
6.99088,106403
6.99825,93541
7.00563,104188
7.013,129387
7.02038,211787
7.02777,368075
7.03513,387467
7.04252,341292
7.04988,454606
7.05727,398399
7.06463,226153
7.07202,151664
7.0794,139156
7.08677,231805
7.09415,284887
7.10152,191987
7.1089,173114
7.11628,329568
7.12365,413636
7.13103,289841
7.1384,206949
7.14578,171716
7.15315,218566
7.16053,244392
7.16792,188404
7.17528,123763
7.18267,97073
7.19003,105230
7.19742,214239
7.2048,855453
7.21217,2517107
7.21955,3057401
7.22692,1231614
7.2343,300075
7.24167,163598
7.24905,150977
7.25643,154658
7.2638,156301
7.27118,139458
7.27855,139994
7.28593,154704
7.29332,143796
7.30068,146141
7.30807,203979
7.31543,242535
7.32282,186437
7.33018,145405
7.33757,142261
7.34495,179553
7.35232,253054
7.3597,261342
7.36707,198788
7.37445,185626
7.38183,203018
7.3892,215026
7.39658,250196
7.40395,251410
7.41133,168330
7.4187,159199
7.42608,218230
7.43347,214077
7.44083,184231
7.44822,223856
7.45558,281812
7.46297,244555
7.47033,145187
7.47772,86703
7.4851,96071
7.49247,181486
7.49985,380614
7.50722,453852
7.5146,254363
7.52198,116507
7.52935,91017
7.53673,79450
7.5441,70079
7.55148,81398
7.55885,113315
7.56623,134571
7.57362,155767
7.58098,148550
7.58837,140849
7.59573,147930
7.60312,194550
7.6105,197845
7.61787,143648
7.62525,173958
7.63262,224006
7.64,176618
7.64737,157240
7.65475,221859
7.66213,255392
7.6695,183813
7.67688,131072
7.68425,125668
7.69163,117929
7.69902,115707
7.70638,132019
7.71377,189004
7.72113,203281
7.72852,194651
7.73588,212321
7.74327,182710
7.75065,185201
7.75802,207217
7.7654,179117
7.77277,199418
7.78015,260678
7.78753,257583
7.7949,242531
7.80228,176573
7.80965,154111
7.81703,195878
7.8244,273881
7.83178,409325
7.83917,435681
7.84653,350435
7.85392,256773
7.86128,230251
7.86867,381105
7.87605,485200
7.88342,291825
7.8908,147217
7.89817,174897
7.90555,210536
7.91292,165553
7.9203,116095
7.92768,125455
7.93505,160646
7.94243,285943
7.9498,369380
7.95718,324442
7.96457,275438
7.97193,245552
7.97932,209061
7.98668,176832
7.99407,179876
8.00143,160620
8.00882,129480
8.0162,116349
8.02357,106667
8.03095,99700
8.03832,101407
8.0457,119193
8.05308,146071
8.06045,132840
8.06783,96836
8.0752,76933
8.08258,78644
8.08995,85261
8.09733,97116
8.10472,121100
8.11208,134283
8.11947,128219
8.12683,137076
8.13422,189228
8.14158,246729
8.14897,253593
8.15635,209677
8.16372,167822
8.1711,132319
8.17847,126542
8.18585,150497
8.19323,203135
8.2006,299257
8.20798,324180
8.21535,261169
8.22273,368694
8.2301,1063078
8.23748,1720121
8.24487,1077714
8.25223,321810
8.25962,162647
8.26698,167002
8.27437,174913
8.28175,184390
8.28912,196984
8.2965,178830
8.30387,166203
8.31125,193957
8.31862,232056
8.326,189082
8.33338,130427
8.34075,128945
8.34813,158303
8.3555,174590
8.36288,213661
8.37027,368960
8.37763,445037
8.38502,289516
8.39238,167526
8.39977,135081
8.40713,146235
8.41452,160133
8.4219,154010
8.42927,145891
8.43665,132918
8.44402,122822
8.4514,155437
8.45878,201214
8.46615,179718
8.47353,138216
8.4809,110746
8.48828,92885
8.49565,123745
8.50303,217283
8.51042,255286
8.51778,197161
8.52517,156330
8.53253,143204
8.53992,164732
8.5473,201908
8.55467,205100
8.56205,172267
8.56942,162564
8.5768,167067
8.58417,159127
8.59155,163254
8.59893,209455
8.6063,225892
8.61368,172780
8.62105,121818
8.62843,108644
8.63582,122044
8.64318,133747
8.65057,140750
8.65793,186917
8.66532,272215
8.67268,329597
8.68007,292938
8.68745,271151
8.69482,248543
8.7022,202151
8.70957,172050
8.71695,147252
8.72432,139399
8.7317,151769
8.73908,206686
8.74645,259937
8.75383,229420
8.7612,267955
8.76858,328422
8.77597,255909
8.78333,176870
8.79072,171126
8.79808,206399
8.80547,268763
8.81283,295218
8.82022,276708
8.8276,290617
8.83497,272870
8.84235,235239
8.84972,328355
8.8571,394445
8.86448,274710
8.87185,228675
8.87923,231092
8.8866,185566
8.89398,130839
8.90135,140614
8.90873,197821
8.91612,319142
8.92348,372459
8.93087,363820
8.93823,548539
8.94562,607618
8.953,366848
8.96037,268799
8.96775,273199
8.97512,242869
8.9825,293619
8.98987,484958
8.99725,503848
9.00463,327709
9.012,211450
9.01938,172612
9.02675,178312
9.03413,172207
9.04152,176485
9.04888,209575
9.05627,214234
9.06363,172596
9.07102,146077
9.07838,176960
9.08577,238289
9.09315,254580
9.10052,233449
9.1079,239432
9.11527,253415
9.12265,258149
9.13003,264129
9.1374,269529
9.14478,281356
9.15215,297737
9.15953,261730
9.1669,245715
9.17428,302950
9.18167,545503
9.18903,1510812
9.19642,2295074
9.20378,1333431
9.21117,441060
9.21855,280923
9.22592,266382
9.2333,251597
9.24067,287673
9.24805,371790
9.25542,454073
9.2628,513677
9.27018,457303
9.27755,473816
9.28493,642358
9.2923,601019
9.29968,419625
9.30705,310223
9.31443,237504
9.32182,236499
9.32918,264356
9.33657,294406
9.34393,335770
9.35132,326623
9.3587,337686
9.36607,412696
9.37345,358269
9.38082,232581
9.3882,196112
9.39557,205168
9.40295,205896
9.41033,209358
9.4177,214836
9.42508,188691
9.43245,164315
9.43983,220293
9.44722,403880
9.45458,525442
9.46197,441709
9.46933,324577
9.47672,369305
9.48408,599020
9.49147,699370
9.49885,505031
9.50622,381848
9.5136,358018
9.52097,371338
9.52835,398274
9.53573,325433
9.5431,270028
9.55048,283211
9.55785,360282
9.56523,426212
9.5726,397172
9.57998,328313
9.58737,270940
9.59473,246856
9.60212,252630
9.60948,235233
9.61687,217596
9.62425,243897
9.63162,304469
9.639,378880
9.64637,574415
9.65375,736526
9.66112,594524
9.6685,362124
9.67588,330856
9.68325,423526
9.69063,401188
9.698,322666
9.70538,344019
9.71277,419423
9.72013,448555
9.72752,548948
9.73488,645345
9.74227,569838
9.74963,411718
9.75702,298784
9.7644,375930
9.77177,590855
9.77915,594760
9.78652,401854
9.7939,327018
9.80128,302917
9.80865,272583
9.81603,258257
9.8234,276741
9.83078,452148
9.83815,715236
9.84553,690350
9.85292,535784
9.86028,495295
9.86767,419799
9.87503,336806
9.88242,397043
9.88978,795282
9.89717,1115246
9.90455,701484
9.91192,327737
9.9193,265441
9.92667,286441
9.93405,289043
9.94143,259946
9.9488,277694
9.95618,297760
9.96355,264864
9.97093,238581
9.9783,267646
9.98568,309589
9.99307,331418
10.0004,357442
10.0078,369106
10.0152,355637
10.0226,318238
10.03,327466
10.0373,326007
10.0447,328747
10.0521,366401
10.0595,414382
10.0668,427423
10.0742,440800
10.0816,650965
10.089,1812267
10.0963,3264688
10.1037,2758808
10.1111,1004918
10.1185,455307
10.1258,440644
10.1332,521165
10.1406,467989
10.148,376120
10.1553,426449
10.1627,604228
10.1701,726271
10.1775,654874
10.1849,681451
10.1922,665515
10.1996,513805
10.207,385781
10.2144,367638
10.2217,398733
10.2291,451960
10.2365,479962
10.2439,380761
10.2512,303317
10.2586,296209
10.266,299009
10.2734,365222
10.2807,574314
10.2881,719597
10.2955,621557
10.3029,460060
10.3103,372047
10.3176,391610
10.325,398495
10.3324,367920
10.3398,343403
10.3471,315658
10.3545,305516
10.3619,332112
10.3693,344430
10.3766,353199
10.384,391945
10.3914,429543
10.3988,425534
10.4061,402678
10.4135,562141
10.4209,806298
10.4283,780430
10.4357,547406
10.443,493050
10.4504,662338
10.4578,744069
10.4652,583043
10.4725,472374
10.4799,503048
10.4873,528024
10.4947,487977
10.502,499751
10.5094,546571
10.5168,600474
10.5242,596603
10.5315,487795
10.5389,384168
10.5463,447768
10.5537,589129
10.561,710398
10.5684,701251
10.5758,586356
10.5832,490097
10.5906,526134
10.5979,692401
10.6053,680388
10.6127,477097
10.6201,533417
10.6274,1095356
10.6348,1614063
10.6422,1386103
10.6496,783885
10.6569,497806
10.6643,456971
10.6717,376151
10.6791,327477
10.6864,320674
10.6938,367877
10.7012,558392
10.7086,637558
10.716,457495
10.7233,353473
10.7307,401523
10.7381,483476
10.7455,460074
10.7528,380436
10.7602,322141
10.7676,307625
10.775,292364
10.7823,321651
10.7897,431662
10.7971,504129
10.8045,424091
10.8118,334380
10.8192,304067
10.8266,360222
10.834,451951
10.8414,440752
10.8487,368178
10.8561,298497
10.8635,274540
10.8709,285952
10.8782,330726
10.8856,410257
10.893,443069
10.9004,370645
10.9077,340958
10.9151,334698
10.9225,354733
10.9299,525586
10.9372,1449648
10.9446,3167286
10.952,3117984
10.9594,1330399
10.9668,538586
10.9741,393638
10.9815,369707
10.9889,390657
10.9963,418033
11.0036,440415
11.011,462634
11.0184,472960
11.0258,466307
11.0331,428106
11.0405,392627
11.0479,377494
11.0553,384152
11.0626,438480
11.07,455122
11.0774,418603
11.0848,351335
11.0921,312896
11.0995,304865
11.1069,305754
11.1143,320038
11.1217,356355
11.129,448219
11.1364,488924
11.1438,418061
11.1512,316044
11.1585,310270
11.1659,321817
11.1733,326813
11.1807,376667
11.188,385412
11.1954,311881
11.2028,279291
11.2102,268713
11.2175,271589
11.2249,308648
11.2323,333099
11.2397,308973
11.2471,277884
11.2544,237925
11.2618,231086
11.2692,252246
11.2766,272260
11.2839,292343
11.2913,319027
11.2987,313566
11.3061,355301
11.3134,497268
11.3208,609143
11.3282,553828
11.3356,466967
11.3429,466422
11.3503,441814
11.3577,499283
11.3651,559045
11.3725,492259
11.3798,404055
11.3872,382740
11.3946,385634
11.402,344629
11.4093,398700
11.4167,565657
11.4241,603895
11.4315,469077
11.4388,305023
11.4462,278915
11.4536,395759
11.461,567726
11.4683,543456
11.4757,448992
11.4831,473709
11.4905,507914
11.4978,485429
11.5052,402827
11.5126,422252
11.52,563948
11.5274,531140
11.5347,346953
11.5421,262490
11.5495,280772
11.5569,299210
11.5642,302092
11.5716,305172
11.579,300194
11.5864,304320
11.5937,303818
11.6011,283379
11.6085,262002
11.6159,263063
11.6232,296177
11.6306,325971
11.638,351851
11.6454,320665
11.6528,305141
11.6601,287800
11.6675,262029
11.6749,252598
11.6823,291642
11.6896,335593
11.697,315341
11.7044,262560
11.7118,244916
11.7191,249955
11.7265,253385
11.7339,354825
11.7413,1002778
11.7486,2149333
11.756,2048699
11.7634,840780
11.7708,361019
11.7782,299676
11.7855,309925
11.7929,313810
11.8003,362697
11.8077,385230
11.815,374850
11.8224,343522
11.8298,320794
11.8372,311012
11.8445,307872
11.8519,291651
11.8593,267450
11.8667,272404
11.874,262475
11.8814,248285
11.8888,271166
11.8962,323545
11.9035,324285
11.9109,299051
11.9183,325340
11.9257,340476
11.9331,306833
11.9404,267131
11.9478,272098
11.9552,278554
11.9626,278517
11.9699,277867
11.9773,290748
11.9847,280925
11.9921,246507
11.9994,227398
12.0068,229061
12.0142,233003
12.0216,258043
12.0289,259049
12.0363,243879
12.0437,230705
12.0511,217127
12.0585,204970
12.0658,209994
12.0732,235306
12.0806,237847
12.088,259628
12.0953,332823
12.1027,379219
12.1101,377046
12.1175,456853
12.1248,637991
12.1322,672513
12.1396,509786
12.147,346020
12.1543,292924
12.1617,244259
12.1691,227250
12.1765,224644
12.1839,235425
12.1912,272985
12.1986,301992
12.206,273760
12.2134,246995
12.2207,263977
12.2281,321030
12.2355,456728
12.2429,455246
12.2502,308184
12.2576,225876
12.265,213593
12.2724,225869
12.2797,246662
12.2871,265663
12.2945,312247
12.3019,318356
12.3092,256646
12.3166,210244
12.324,211733
12.3314,208584
12.3388,200537
12.3461,193795
12.3535,200684
12.3609,201732
12.3683,191700
12.3756,188153
12.383,199524
12.3904,228552
12.3978,231109
12.4051,211415
12.4125,202019
12.4199,209709
12.4273,217076
12.4346,221630
12.442,218154
12.4494,205735
12.4568,192063
12.4642,205669
12.4715,209580
12.4789,203933
12.4863,207690
12.4937,248640
12.501,539696
12.5084,1237369
12.5158,1487975
12.5232,724536
12.5305,260922
12.5379,210807
12.5453,337433
12.5527,676644
12.56,919009
12.5674,706417
12.5748,384023
12.5822,270688
12.5896,266319
12.5969,262729
12.6043,241637
12.6117,226338
12.6191,214828
12.6264,207963
12.6338,193173
12.6412,183958
12.6486,177507
12.6559,186444
12.6633,191919
12.6707,195143
12.6781,201823
12.6854,210601
12.6928,209165
12.7002,197175
12.7076,193817
12.715,194883
12.7223,192811
12.7297,191885
12.7371,180633
12.7445,175353
12.7518,184685
12.7592,215290
12.7666,242455
12.774,233990
12.7813,203600
12.7887,176104
12.7961,174491
12.8035,166472
12.8108,166321
12.8182,183416
12.8256,229088
12.833,266794
12.8403,291659
12.8477,267400
12.8551,242650
12.8625,221867
12.8699,197241
12.8772,182478
12.8846,204682
12.892,225771
12.8994,226283
12.9067,214579
12.9141,191382
12.9215,179898
12.9289,203471
12.9362,231251
12.9436,205066
12.951,169859
12.9584,174749
12.9657,214946
12.9731,276138
12.9805,283207
12.9879,222108
12.9953,182454
13.0026,188571
13.01,217042
13.0174,205961
13.0248,198202
13.0321,230086
13.0395,229953
13.0469,188464
13.0543,158657
13.0616,147988
13.069,153935
13.0764,161481
13.0838,154646
13.0911,152750
13.0985,159579
13.1059,168296
13.1133,168831
13.1207,169216
13.128,158657
13.1354,153155
13.1428,162345
13.1502,179743
13.1575,187969
13.1649,174958
13.1723,162736
13.1797,157484
13.187,156832
13.1944,164400
13.2018,160715
13.2092,158647
13.2165,165278
13.2239,289298
13.2313,718177
13.2387,983530
13.246,589205
13.2534,236509
13.2608,162398
13.2682,161379
13.2756,160431
13.2829,159105
13.2903,185765
13.2977,279126
13.3051,452591
13.3124,538193
13.3198,405323
13.3272,254210
13.3346,195757
13.3419,175806
13.3493,160453
13.3567,148487
13.3641,143450
13.3714,136154
13.3788,136355
13.3862,140220
13.3936,137140
13.401,139090
13.4083,135522
13.4157,131801
13.4231,132045
13.4305,138598
13.4378,149572
13.4452,145269
13.4526,136820
13.46,127986
13.4673,127925
13.4747,135866
13.4821,150453
13.4895,154999
13.4968,151811
13.5042,137619
13.5116,132863
13.519,137908
13.5264,161585
13.5337,174988
13.5411,173083
13.5485,169997
13.5559,167461
13.5632,162827
13.5706,146617
13.578,135265
13.5854,141641
13.5927,151417
13.6001,145846
13.6075,136040
13.6149,135735
13.6222,136245
13.6296,135379
13.637,147347
13.6444,158768
13.6517,147074
13.6591,138010
13.6665,141638
13.6739,162220
13.6813,159496
13.6886,139370
13.696,129649
13.7034,135974
13.7108,139444
13.7181,131386
13.7255,132051
13.7329,164060
13.7403,194970
13.7476,173054
13.755,137343
13.7624,128170
13.7698,121558
13.7771,116372
13.7845,118104
13.7919,125458
13.7993,127062
13.8067,129519
13.814,130339
13.8214,123553
13.8288,119974
13.8362,116645
13.8435,117153
13.8509,113808
13.8583,113124
13.8657,121014
13.873,151715
13.8804,182943
13.8878,188404
13.8952,152472
13.9025,132099
13.9099,156453
13.9173,323135
13.9247,620303
13.9321,543129
13.9394,251479
13.9468,138824
13.9542,122216
13.9616,120265
13.9689,114585
13.9763,118655
13.9837,118886
13.9911,124530
13.9984,130416
14.0058,122626
14.0132,121190
14.0206,121248
14.0279,122685
14.0353,124401
14.0427,119435
14.0501,108612
14.0574,107863
14.0648,114014
14.0722,114495
14.0796,111935
14.087,107514
14.0943,104519
14.1017,105646
14.1091,106649
14.1165,107413
14.1238,107586
14.1312,110969
14.1386,114478
14.146,114740
14.1533,111106
14.1607,108989
14.1681,116868
14.1755,121726
14.1828,120347
14.1902,131091
14.1976,134931
14.205,130701
14.2124,124405
14.2197,119767
14.2271,119611
14.2345,119265
14.2419,112960
14.2492,110531
14.2566,112405
14.264,111772
14.2714,108190
14.2787,98266
14.2861,99311
14.2935,105791
14.3009,122496
14.3082,126876
14.3156,114704
14.323,110051
14.3304,121298
14.3378,131715
14.3451,122191
14.3525,106222
14.3599,103797
14.3673,105362
14.3746,107917
14.382,114429
14.3894,131412
14.3968,122822
14.4041,107333
14.4115,103597
14.4189,114753
14.4263,118766
14.4336,107531
14.441,100091
14.4484,98026
14.4558,104067
14.4632,108386
14.4705,107501
14.4779,101892
14.4853,97548
14.4927,96408
14.5,96369
14.5074,95836
14.5148,97345
14.5222,95580
14.5295,92934
14.5369,97096
14.5443,123467
14.5517,249274
14.559,419022
14.5664,330777
14.5738,157772
14.5812,109594
14.5885,101782
14.5959,99623
14.6033,97292
14.6107,97990
14.6181,96398
14.6254,96684
14.6328,98154
14.6402,101687
14.6476,96219
14.6549,95165
14.6623,98586
14.6697,103359
14.6771,104470
14.6844,97213
14.6918,92128
14.6992,88853
14.7066,89785
14.7139,88629
14.7213,88760
14.7287,86700
14.7361,88500
14.7435,89165
14.7508,87171
14.7582,90391
14.7656,92910
14.773,98152
14.7803,105612
14.7877,108760
14.7951,105233
14.8025,100856
14.8098,102281
14.8172,101180
14.8246,100508
14.832,94756
14.8393,91816
14.8467,94154
14.8541,95534
14.8615,94668
14.8689,91440
14.8762,91545
14.8836,94425
14.891,98096
14.8984,98286
14.9057,93138
14.9131,97437
14.9205,102493
14.9279,89939
14.9352,85044
14.9426,86433
14.95,83769
14.9574,84022
14.9647,96483
14.9721,109420
14.9795,110765
14.9869,112170
14.9942,105172
15.0016,96946
15.009,97162
15.0164,105453
15.0238,99087
15.0311,89150
15.0385,86248
15.0459,86916
15.0533,87998
15.0606,85683
15.068,82120
15.0754,79177
15.0828,80989
15.0901,80977
15.0975,89490
15.1049,153770
15.1123,284925
15.1196,241100
15.127,125999
15.1344,91335
15.1418,84349
15.1492,82437
15.1565,83608
15.1639,85319
15.1713,82739
15.1787,79434
15.186,81584
15.1934,86241
15.2008,85620
15.2082,81658
15.2155,80161
15.2229,81966
15.2303,80231
15.2377,79350
15.245,78914
15.2524,77001
15.2598,76230
15.2672,75812
15.2746,80629
15.2819,85419
15.2893,85448
15.2967,82325
15.3041,82500
15.3114,86416
15.3188,87589
15.3262,88556
15.3336,86732
15.3409,83303
15.3483,82774
15.3557,80683
15.3631,77639
15.3704,81086
15.3778,80825
15.3852,77832
15.3926,77920
15.3999,80812
15.4073,83109
15.4147,80982
15.4221,79861
15.4295,83952
15.4368,85793
15.4442,81235
15.4516,83356
15.459,82170
15.4663,82030
15.4737,81183
15.4811,82611
15.4885,77226
15.4958,75105
15.5032,80404
15.5106,79853
15.518,77990
15.5253,78125
15.5327,78647
15.5401,83457
15.5475,81601
15.5549,77286
15.5622,75543
15.5696,73687
15.577,73151
15.5844,73929
15.5917,77819
15.5991,121693
15.6065,192543
15.6139,147743
15.6212,92593
15.6286,79514
15.636,77861
15.6434,77296
15.6507,77968
15.6581,78678
15.6655,79910
15.6729,77972
15.6803,78232
15.6876,79205
15.695,80368
15.7024,82323
15.7098,81289
15.7171,80654
15.7245,78518
15.7319,77348
15.7393,77664
15.7466,77238
15.754,76561
15.7614,77620
15.7688,83047
15.7761,90992
15.7835,93314
15.7909,88415
15.7983,83108
15.8056,82377
15.813,82154
15.8204,83631
15.8278,81222
15.8352,80010
15.8425,78272
15.8499,77292
15.8573,77226
15.8647,77655
15.872,79110
15.8794,77598
15.8868,80435
15.8942,79644
15.9015,78346
15.9089,76312
15.9163,78173
15.9237,76190
15.931,76784
15.9384,76093
15.9458,75149
15.9532,73309
15.9606,74629
15.9679,74718
15.9753,76221
15.9827,75761
15.9901,73561
15.9974,75211
16.0048,76079
16.0122,76703
16.0195,76472
16.0269,76257
16.0343,76896
16.0417,92398
16.0491,133083
16.0564,125297
16.0638,91568
16.0712,80601
16.0786,78988
16.086,79533
16.0933,79185
16.1007,79892
16.1081,80390
16.1154,81320
16.1228,82184
16.1302,83910
16.1376,85022
16.145,83810
16.1523,83108
16.1597,80885
16.1671,79407
16.1745,78486
16.1818,77740
16.1892,78388
16.1966,80102
16.204,81412
16.2113,81770
16.2187,82884
16.2261,80690
16.2335,80912
16.2408,80440
16.2482,81776
16.2556,80254
16.263,80888
16.2704,81122
16.2777,79302
16.2851,77382
16.2925,78677
16.2999,80228
16.3072,80731
16.3146,79930
16.322,82219
16.3294,80945
16.3367,80709
16.3441,81838
16.3515,80140
16.3589,80441
16.3663,81406
16.3736,80617
16.381,79356
16.3884,77838
16.3958,77302
16.4031,79749
16.4105,80860
16.4179,80806
16.4252,81006
16.4326,78233
16.44,77745
16.4474,76105
16.4548,76858
16.4621,76087
16.4695,77031
16.4769,77166
16.4843,88510
16.4917,102977
16.499,93407
16.5064,78257
16.5138,74031
16.5211,72866
16.5285,73221
16.5359,72653
16.5433,71873
16.5507,70925
16.558,71436
16.5654,72126
16.5728,71580
16.5802,72747
16.5875,73955
16.5949,76381
16.6023,74251
16.6097,75863
16.617,74675
16.6244,74523
16.6318,74056
16.6392,74391
16.6466,75624
16.6539,76421
16.6613,76432
16.6687,76085
16.6761,75353
16.6834,75369
16.6908,74555
16.6982,75895
16.7056,76175
16.7129,75871
16.7203,74150
16.7277,76149
16.7351,77043
16.7424,75869
16.7498,76341
16.7572,74545
16.7646,77105
16.772,76609
16.7793,76342
16.7867,76595
16.7941,77176
16.8014,75654
16.8088,75335
16.8162,73524
16.8236,73860
16.831,75617
16.8383,74283
16.8457,74402
16.8531,73673
16.8605,73626
16.8678,75593
16.8752,75716
16.8826,74719
16.89,76833
16.8973,76679
16.9047,76785
16.9121,76599
16.9195,76310
16.9269,77125
16.9342,75813
16.9416,73726
16.949,75174
16.9564,77517
16.9637,82980
16.9711,82451
16.9785,78908
16.9859,75287
16.9932,73302
17.0006,74354
17.008,74674
17.0154,73893
17.0227,73820
17.0301,75247
17.0375,74233
17.0449,75563
17.0523,76232
17.0596,74622
17.067,74257
17.0744,75039
17.0818,73643
17.0891,74974
17.0965,74752
17.1039,74775
17.1113,76047
17.1186,76553
17.126,76022
17.1334,77873
17.1408,78934
17.1481,78790
17.1555,79943
17.1629,78676
17.1703,78463
17.1777,77454
17.185,77810
17.1924,77514
17.1998,76338
17.2071,78539
17.2145,76941
17.2219,76897
17.2293,77433
17.2367,76004
17.244,76423
17.2514,75380
17.2588,74743
17.2662,75197
17.2735,74610
17.2809,75053
17.2883,74505
17.2957,75176
17.303,74434
17.3104,74015
17.3178,74251
17.3252,72148
17.3326,72627
17.3399,72609
17.3473,72105
17.3547,72163
17.3621,72171
17.3694,71457
17.3768,70823
17.3842,70266
17.3916,72863
17.3989,71816
17.4063,72030
17.4137,70674
17.4211,70587
17.4285,70524
17.4358,69144
17.4432,70830
17.4506,69688
17.458,71176
17.4653,71198
17.4727,71187
17.4801,71633
17.4875,71774
