D:\Data GC-MS\2017\ST\SOLER AND HPD\SOLER SUMMER 12 Y37 HS.D 15 Feb 17  02:57 pm
Start of data points
1.29393,7700152
1.30067,7339853
1.30742,7011710
1.31415,6663622
1.3209,6466177
1.32763,6334783
1.33438,6267942
1.34112,6227433
1.34787,6154919
1.35462,6155949
1.36135,6176374
1.3681,6208551
1.37483,6190932
1.38158,6118618
1.38832,6091604
1.39507,6042645
1.40182,5996482
1.40855,5909737
1.4153,5820024
1.42203,5698769
1.42878,5617619
1.43552,5452860
1.44227,5286306
1.44902,5095990
1.45575,4780114
1.4625,4512366
1.46923,4226234
1.47598,3988290
1.48272,3749734
1.48947,3597492
1.51033,11608450
1.5177,11562756
1.52508,11535948
1.53245,11439865
1.53983,11344066
1.54722,11272539
1.55458,11330038
1.56197,11373581
1.56933,11306570
1.57672,11071547
1.58408,10904149
1.59147,10676346
1.59885,10315984
1.60622,10079402
1.6136,9666096
1.62097,9336884
1.62835,9025862
1.63573,8626154
1.6431,8649677
1.65048,8275145
1.65785,7946360
1.66523,7401209
1.6726,7094024
1.67998,6802532
1.68737,6708739
1.69473,6085115
1.70212,5766488
1.70948,5353030
1.71687,5110905
1.72425,4910985
1.73162,4526125
1.739,4199243
1.74637,3853960
1.75375,3733716
1.76112,3657222
1.7685,3442974
1.77588,3352952
1.78325,3200623
1.79063,3018947
1.798,3226621
1.80538,3134333
1.81277,2553279
1.82013,2552410
1.82752,2413372
1.83488,2685377
1.84227,2389985
1.84963,2022651
1.85702,2003053
1.8644,1944709
1.87177,1973955
1.87915,1894459
1.88652,2273578
1.8939,2294445
1.90128,2171876
1.90865,2281452
1.91603,1818682
1.9234,1621935
1.93078,1820076
1.93815,1630023
1.94553,1730817
1.95292,1613065
1.96028,1583924
1.96767,1594391
1.97503,1588863
1.98242,1261789
1.98978,1402500
1.99717,1522762
2.00455,1577367
2.01192,1881337
2.0193,2461000
2.02667,2341403
2.03405,2273971
2.04143,2086904
2.0488,2077641
2.05618,2257263
2.06355,2398725
2.07093,2374026
2.0783,2348360
2.08568,2350878
2.09307,2347580
2.10043,2014436
2.10782,1433307
2.11518,1442917
2.12257,1833210
2.12995,2104915
2.13732,1998071
2.1447,2195346
2.15207,2241324
2.15945,2302872
2.16682,1445000
2.1742,1620515
2.18158,2378111
2.18895,1954881
2.19633,1251207
2.2037,1142996
2.21108,1027295
2.21847,998549
2.22583,906824
2.23322,1046597
2.24058,1126753
2.24797,1057014
2.25533,982757
2.26272,1102466
2.2701,1113448
2.27747,962303
2.28485,969720
2.29222,983232
2.2996,1081242
2.30698,1203650
2.31435,1250136
2.32173,1115346
2.3291,1173000
2.33648,953028
2.34385,896120
2.35123,871818
2.35862,822916
2.36598,739787
2.37337,662168
2.38073,922058
2.38812,921085
2.3955,967427
2.40287,864427
2.41025,857305
2.41762,877125
2.425,818683
2.43237,751934
2.43975,928938
2.44713,1205170
2.4545,1284326
2.46188,1158080
2.46925,1221919
2.47663,1309869
2.48402,1246977
2.49138,1057117
2.49877,925852
2.50613,1012640
2.51352,1041433
2.52088,903975
2.52827,903168
2.53565,976842
2.54302,821970
2.5504,1233397
2.55777,1235049
2.56515,1186720
2.57252,1050133
2.5799,1031950
2.58728,963128
2.59465,980228
2.60203,1019622
2.6094,992282
2.61678,975135
2.62417,947489
2.63153,1092190
2.63892,1106503
2.64628,1006026
2.65367,1026381
2.66103,969235
2.66842,922366
2.6758,1044781
2.68317,946162
2.69055,890725
2.69792,723998
2.7053,857339
2.71268,923087
2.72005,1202279
2.72743,1206390
2.7348,1209371
2.74218,1124539
2.74955,1081251
2.75693,891899
2.76432,900525
2.77168,801324
2.77907,774388
2.78643,804430
2.79382,800282
2.8012,922280
2.80857,798468
2.81595,830330
2.82332,1057799
2.8307,1001666
2.83807,975504
2.84545,1061718
2.85283,908750
2.8602,886193
2.86758,1314148
2.87495,737869
2.88233,673242
2.88972,704855
2.89708,709109
2.90447,812961
2.91183,1175878
2.91922,820738
2.92658,865015
2.93397,989960
2.94135,992967
2.94872,951783
2.9561,915109
2.96347,908029
2.97085,924951
2.97823,900157
2.9856,886113
2.99298,995792
3.00035,1060511
3.00773,1049868
3.0151,944373
3.02248,1058954
3.02987,1107173
3.03723,1047698
3.04462,1139697
3.05198,1352650
3.05937,1425946
3.06675,1456102
3.07412,1312661
3.0815,1213108
3.08887,1269455
3.09625,1042478
3.10362,1202182
3.111,1301361
3.11838,1471652
3.12575,1415745
3.13313,1003840
3.1405,785313
3.14788,813029
3.15525,781455
3.16263,807794
3.17002,981242
3.17738,1062732
3.18477,1087526
3.19213,870804
3.19952,1035903
3.2069,1155922
3.21427,785457
3.22165,807299
3.22902,835531
3.2364,821719
3.24377,1116159
3.25115,1193633
3.25853,1074065
3.2659,1055752
3.27328,999744
3.28065,1003878
3.28803,973114
3.29542,853569
3.30278,800903
3.31017,772951
3.31753,785865
3.32492,1045121
3.33228,1022859
3.33967,1500810
3.34705,1133596
3.35442,1058556
3.3618,1016687
3.36917,1075403
3.37655,1024554
3.38393,905309
3.3913,840487
3.39868,806805
3.40605,875079
3.41343,984361
3.4208,1002219
3.42818,1233332
3.43557,1036461
3.44293,1085647
3.45032,1057956
3.45768,1044750
3.46507,779345
3.47245,1032009
3.47982,1083747
3.4872,1188985
3.49457,1059660
3.50195,1018304
3.50932,1197771
3.5167,1670981
3.52408,1184893
3.53145,1109577
3.53883,1570002
3.5462,1628949
3.55358,1242562
3.56097,1691878
3.56833,2289800
3.57572,2240141
3.58308,1209735
3.59047,847637
3.59783,671236
3.60522,844882
3.6126,1154918
3.61997,1010467
3.62735,1503944
3.63472,2710840
3.6421,2915367
3.64948,2578508
3.65685,1149705
3.66423,1485422
3.6716,1530725
3.67898,1440455
3.68635,1170358
3.69373,1143983
3.70112,1181044
3.70848,1157647
3.71587,1031612
3.72323,993394
3.73062,614830
3.73798,769484
3.74537,905876
3.75275,1012088
3.76012,998608
3.7675,1018625
3.77487,1173808
3.78225,1118495
3.78963,892681
3.797,853110
3.80438,883329
3.81175,911205
3.81913,930953
3.8265,1017951
3.83388,1007243
3.84127,976400
3.84863,1113677
3.85602,1086189
3.86338,1008114
3.87077,1431831
3.87815,1817995
3.88552,957344
3.8929,931027
3.90027,991591
3.90765,1016562
3.91502,904164
3.9224,889914
3.92978,944748
3.93715,927803
3.94453,896045
3.9519,923385
3.95928,861524
3.96667,798668
3.97403,809731
3.98142,758633
3.98878,791338
3.99617,837514
4.00353,873281
4.01092,798675
4.0183,801621
4.02567,851803
4.03305,780136
4.04042,828728
4.0478,737301
4.05518,908255
4.06255,966038
4.06993,944446
4.0773,1034361
4.08468,1298563
4.09205,1278309
4.09943,1400450
4.10682,1261853
4.11418,1226041
4.12157,1167128
4.12893,1281248
4.13632,1202917
4.1437,1003927
4.15107,1051579
4.15845,1039976
4.16582,1102172
4.1732,1193365
4.18057,1139808
4.18795,992517
4.19533,1104311
4.2027,1166950
4.21008,1157854
4.21745,1225651
4.22483,1061736
4.23222,1152570
4.23958,1169029
4.24697,1107664
4.25433,1080079
4.26172,989216
4.26908,980615
4.27647,1008546
4.28385,1056449
4.29122,982192
4.2986,962902
4.30597,926265
4.31335,1004572
4.32072,1188515
4.3281,1248996
4.33548,1185645
4.34285,1267139
4.35023,1168471
4.3576,1143135
4.36498,1129775
4.37237,1084079
4.37973,1003718
4.38712,1115916
4.39448,1111719
4.40187,1114315
4.40923,1280300
4.41662,1077520
4.424,1207214
4.43137,1147678
4.43875,1111401
4.44612,1005335
4.4535,969796
4.46088,1082397
4.46825,1041089
4.47563,1180518
4.483,1038458
4.49038,1009930
4.49775,961576
4.50513,992666
4.51252,975526
4.51988,1080716
4.52727,1022234
4.53463,874325
4.54202,900075
4.5494,928227
4.55677,997901
4.56415,1005321
4.57152,1017204
4.5789,1131578
4.58627,1204492
4.59365,1197886
4.60103,1041190
4.6084,1090062
4.61578,994753
4.62315,977569
4.63053,1173707
4.63792,1251837
4.64528,1047263
4.65267,1117974
4.66003,961429
4.66742,884222
4.67478,941590
4.68217,1116003
4.68955,1127030
4.69692,1312554
4.7043,1286933
4.71167,980117
4.71905,1007129
4.72643,1147250
4.7338,1186209
4.74118,1179103
4.74855,983364
4.75593,911906
4.7633,843094
4.77068,801039
4.77807,765704
4.78543,737128
4.79282,790946
4.80018,769938
4.80757,844399
4.81495,857011
4.82232,834231
4.8297,800684
4.83707,837268
4.84445,800398
4.85182,760743
4.8592,747159
4.86658,708753
4.87395,698381
4.88133,722185
4.8887,756876
4.89608,704017
4.90345,755889
4.91083,842525
4.91822,668126
4.92558,685869
4.93297,685837
4.94033,636227
4.94772,634334
4.9551,708648
4.96247,855992
4.96985,928496
4.97722,1006604
4.9846,850645
4.99197,777934
4.99935,695042
5.00673,716910
5.0141,725219
5.02148,710113
5.02885,728118
5.03623,815515
5.04362,1018026
5.05098,977739
5.05837,1019943
5.06573,889677
5.07312,770310
5.08048,820623
5.08787,790180
5.09525,757502
5.10262,890900
5.11,742649
5.11737,726143
5.12475,701202
5.13213,741077
5.1395,702818
5.14688,749295
5.15425,648680
5.16163,666198
5.169,625540
5.17638,736515
5.18377,762452
5.19113,876318
5.19852,885309
5.20588,800744
5.21327,669489
5.22065,673005
5.22802,673644
5.2354,666845
5.24277,795720
5.25015,783422
5.25752,841875
5.2649,774727
5.27228,755295
5.27965,753952
5.28703,846796
5.2944,717041
5.30178,778207
5.30917,953153
5.31653,1022571
5.32392,966534
5.33128,918828
5.33867,830430
5.34603,888583
5.35342,890496
5.3608,900525
5.36817,862934
5.37555,806266
5.38292,852431
5.3903,838280
5.39768,741712
5.40505,808996
5.41243,818243
5.4198,827724
5.42718,785854
5.43455,772285
5.44193,674832
5.44932,696554
5.45668,1046952
5.46407,1066850
5.47143,1222259
5.47882,1174571
5.48618,895708
5.49357,716597
5.50095,673335
5.50832,700228
5.5157,715955
5.52307,716813
5.53045,685564
5.53783,719438
5.5452,835868
5.55258,679781
5.55995,664293
5.56733,696326
5.5747,799494
5.58208,716537
5.58947,713628
5.59683,773323
5.60422,723248
5.61158,811167
5.61897,797824
5.62635,715065
5.63372,732223
5.6411,731031
5.64847,989713
5.65585,926719
5.66322,887329
5.6706,1221925
5.67798,1176222
5.68535,1283038
5.69273,1178276
5.7001,1181494
5.70748,1159279
5.71487,1287856
5.72223,905592
5.72962,933103
5.73698,919400
5.74437,873302
5.75173,911081
5.75912,938154
5.7665,984865
5.77387,937424
5.78125,949571
5.78862,1074723
5.796,1072758
5.80338,1093533
5.81075,997886
5.81813,905787
5.8255,776301
5.83288,923241
5.84025,948064
5.84763,789014
5.85502,1145193
5.86238,900402
5.86977,923622
5.87713,943237
5.88452,992122
5.8919,1025372
5.89927,1060542
5.90665,939315
5.91402,1020996
5.9214,816648
5.92877,875094
5.93615,786971
5.94353,853601
5.9509,875529
5.95828,901114
5.96565,908904
5.97303,892722
5.98042,899134
5.98778,887537
5.99517,865017
6.00253,855727
6.00992,859197
6.01728,964519
6.02467,1076995
6.03205,1142410
6.03942,1059240
6.0468,1025055
6.05417,931171
6.06155,947115
6.06892,919874
6.0763,969618
6.08368,978742
6.09105,925958
6.09843,1110248
6.1058,1259976
6.11318,1385395
6.12057,1225163
6.12793,1112409
6.13532,1281419
6.14268,1343732
6.15007,1169209
6.15743,1154734
6.16482,1384474
6.1722,1513460
6.17957,1416664
6.18695,1397236
6.19432,1393218
6.2017,1260407
6.20908,1076774
6.21645,921019
6.22383,861824
6.2312,690192
6.23858,670917
6.24595,698617
6.25333,768468
6.26072,710572
6.26808,721362
6.27547,697293
6.28283,876075
6.29022,797384
6.2976,790908
6.30497,840365
6.31235,883020
6.31972,858434
6.3271,879110
6.33447,820003
6.34185,933402
6.34923,1055516
6.3566,1013219
6.36398,985929
6.37135,1007052
6.37873,882519
6.38612,855100
6.39348,842754
6.40087,812394
6.40823,917664
6.41562,857345
6.42298,860287
6.43037,919707
6.43775,828329
6.44512,874045
6.4525,895592
6.45987,976890
6.46725,874560
6.47463,784402
6.482,739879
6.48938,784643
6.49675,838571
6.50413,802962
6.5115,1212746
6.51888,978034
6.52627,816467
6.53363,793174
6.54102,1011840
6.54838,1054133
6.55577,991363
6.56315,976437
6.57052,738195
6.5779,662238
6.58527,656795
6.59265,716388
6.60002,1047689
6.6074,849830
6.61478,719400
6.62215,645298
6.62953,634298
6.6369,630673
6.64428,610496
6.65165,612533
6.65903,625721
6.66642,691113
6.67378,715636
6.68117,801855
6.68853,702731
6.69592,670688
6.7033,740542
6.71067,722370
6.71805,712435
6.72542,794336
6.7328,767417
6.74017,788504
6.74755,830861
6.75493,771708
6.7623,750069
6.76968,753733
6.77705,669419
6.78443,763029
6.79182,809358
6.79918,718429
6.80657,668700
6.81393,746881
6.82132,684322
6.82868,690601
6.83607,674307
6.84345,641260
6.85082,669362
6.8582,641023
6.86557,676574
6.87295,727668
6.88033,752940
6.8877,733009
6.89508,689445
6.90245,760374
6.90983,728473
6.9172,795887
6.92458,960758
6.93197,1023213
6.93933,927511
6.94672,891157
6.95408,968620
6.96147,871540
6.96885,952236
6.97622,975903
6.9836,950004
6.99097,969281
6.99835,1012016
7.00572,1021460
7.0131,982201
7.02048,996459
7.02785,969364
7.03523,984654
7.0426,1023641
7.04998,1047059
7.05737,1045752
7.06473,1022293
7.07212,959589
7.07948,980877
7.08687,903143
7.09423,924087
7.10162,890785
7.109,1007742
7.11637,1035420
7.12375,1051702
7.13112,1023895
7.1385,980436
7.14588,1107749
7.15325,1067797
7.16063,1113636
7.168,1115098
7.17538,1141866
7.18275,1209723
7.19013,1215165
7.19752,1393802
7.20488,1443458
7.21227,1295802
7.21963,1136423
7.22702,1115663
7.23438,943284
7.24177,956882
7.24915,947906
7.25652,900522
7.2639,905773
7.27127,891665
7.27865,1029387
7.28603,966652
7.2934,888682
7.30078,884224
7.30815,896052
7.31553,845726
7.3229,843108
7.33028,819617
7.33767,809253
7.34503,894946
7.35242,941328
7.35978,1002630
7.36717,928074
7.37455,944611
7.38192,857158
7.3893,914575
7.39667,940696
7.40405,1025091
7.41142,869730
7.4188,825410
7.42618,916063
7.43355,859275
7.44093,921184
7.4483,1034899
7.45568,872398
7.46307,804371
7.47043,919050
7.47782,865956
7.48518,890075
7.49257,815493
7.49993,836771
7.50732,808086
7.5147,931695
7.52207,857328
7.52945,880752
7.53682,924344
7.5442,890158
7.55158,860260
7.55895,857305
7.56633,888692
7.5737,991381
7.58108,804654
7.58845,863773
7.59583,819645
7.60322,797974
7.61058,1151891
7.61797,1226526
7.62533,1043468
7.63272,899682
7.6401,927305
7.64747,980565
7.65485,927745
7.66222,902863
7.6696,975219
7.67697,987607
7.68435,1320020
7.69173,1391676
7.6991,1224895
7.70648,1140285
7.71385,1068083
7.72123,1200961
7.72862,1287803
7.73598,1368569
7.74337,1349106
7.75073,1273397
7.75812,1313984
7.76548,1225169
7.77287,1127415
7.78025,1347320
7.78762,969230
7.795,965625
7.80237,949624
7.80975,929980
7.81712,939311
7.8245,958930
7.83188,1011791
7.83925,1007727
7.84663,908255
7.854,865152
7.86138,852217
7.86877,871035
7.87613,950023
7.88352,903549
7.89088,862499
7.89827,899425
7.90563,891749
7.91302,943736
7.9204,1033391
7.92777,1025950
7.93515,963644
7.94252,1039037
7.9499,974357
7.95728,753769
7.96465,721520
7.97203,724140
7.9794,659722
7.98678,593408
7.99415,656504
8.00153,685667
8.00892,683993
8.01628,645554
8.02367,664245
8.03103,637744
8.03842,624501
8.0458,676313
8.05317,745347
8.06055,746311
8.06792,737650
8.0753,755010
8.08267,796912
8.09005,938946
8.09743,890289
8.1048,890038
8.11218,859721
8.11955,798302
8.12693,795083
8.13432,786628
8.14168,895145
8.14907,843143
8.15643,793797
8.16382,886941
8.17118,897816
8.17857,846838
8.18595,869230
8.19332,912059
8.2007,922711
8.20807,883675
8.21545,913532
8.22283,965304
8.2302,1356748
8.23758,1743309
8.24495,1434070
8.25233,1072542
8.2597,1141138
8.26708,972457
8.27447,975825
8.28183,898421
8.28922,949723
8.29658,1013303
8.30397,1056945
8.31135,1122554
8.31872,1061620
8.3261,1021152
8.33347,1100308
8.34085,1030674
8.34822,1016873
8.3556,988668
8.36298,1226092
8.37035,1287486
8.37773,1304706
8.3851,1127449
8.39248,1057564
8.39985,994697
8.40723,966831
8.41462,969355
8.42198,1033379
8.42937,797508
8.43673,763115
8.44412,726260
8.4515,851351
8.45887,830529
8.46625,886174
8.47362,740683
8.481,747179
8.48837,717547
8.49575,679000
8.50313,677336
8.5105,779682
8.51788,805321
8.52525,847560
8.53263,873090
8.54002,989292
8.54738,1029819
8.55477,960805
8.56213,1080948
8.56952,1004868
8.57688,999879
8.58427,969085
8.59165,918006
8.59902,905760
8.6064,1060263
8.61377,1288614
8.62115,1155162
8.62853,964079
8.6359,908992
8.64328,925803
8.65065,932258
8.65803,939494
8.6654,829913
8.67278,803449
8.68017,738827
8.68753,862085
8.69492,1007111
8.70228,718294
8.70967,788444
8.71705,731154
8.72442,750873
8.7318,886971
8.73917,928842
8.74655,926646
8.75392,932227
8.7613,995092
8.76868,1115489
8.77605,1312883
8.78343,1541964
8.7908,1274348
8.79818,1058874
8.80557,999963
8.81293,1040536
8.82032,976397
8.82768,960293
8.83507,1059410
8.84243,1026320
8.84982,1021908
8.8572,1191280
8.86457,1106561
8.87195,1028562
8.87932,1031621
8.8867,1009907
8.89408,978920
8.90145,994330
8.90883,1018072
8.9162,1088646
8.92358,1183413
8.93095,1070576
8.93833,1168110
8.94572,1232877
8.95308,1095478
8.96047,1009641
8.96783,962969
8.97522,920306
8.98258,930599
8.98997,977799
8.99735,970478
9.00472,894280
9.0121,943093
9.01947,892498
9.02685,809395
9.03423,814584
9.0416,804227
9.04898,943582
9.05635,793805
9.06373,869678
9.0711,866665
9.07848,816962
9.08587,924622
9.09323,949241
9.10062,1027375
9.10798,1074057
9.11537,1055168
9.12275,1127068
9.13012,1221255
9.1375,1220467
9.14487,1288930
9.15225,1415320
9.15962,1174282
9.167,1033565
9.17438,1087266
9.18175,1186658
9.18913,1893433
9.1965,2610370
9.20388,1930149
9.21127,1165910
9.21863,979055
9.22602,1015000
9.23338,959643
9.24077,1016987
9.24813,1037500
9.25552,1110637
9.2629,1157325
9.27027,962722
9.27765,1020528
9.28502,933254
9.2924,983114
9.29978,983538
9.30715,955860
9.31453,963505
9.3219,949629
9.32928,936872
9.33665,943969
9.34403,1046897
9.35142,1007552
9.35878,1101042
9.36617,1204279
9.37353,1138893
9.38092,1025561
9.3883,955003
9.39567,951307
9.40305,1023144
9.41042,815343
9.4178,905018
9.42517,856717
9.43255,836484
9.43993,774564
9.4473,801299
9.45468,855510
9.46205,962962
9.46943,902136
9.47682,986558
9.48418,1018428
9.49157,1088797
9.49893,1067218
9.50632,1060912
9.51368,1044989
9.52107,1099173
9.52845,1038162
9.53582,1019349
9.5432,1032735
9.55057,950386
9.55795,968441
9.56532,1023201
9.5727,979434
9.58008,886312
9.58745,905854
9.59483,904879
9.6022,946918
9.60958,878102
9.61697,927564
9.62433,1660136
9.63172,1777598
9.63908,1849446
9.64647,1955198
9.65383,1891423
9.66122,1439582
9.6686,1272702
9.67597,1243856
9.68335,1444282
9.69072,1827710
9.6981,1773590
9.70548,1851554
9.71285,1234551
9.72023,1267636
9.7276,2127638
9.73498,1715458
9.74235,1581616
9.74973,2054897
9.75712,1670905
9.76448,1577546
9.77187,2115472
9.77923,2202607
9.78662,1332607
9.794,1087292
9.80137,1527761
9.80875,1377600
9.81612,983432
9.8235,1171002
9.83087,1214123
9.83825,1403600
9.84563,1280603
9.853,1157864
9.86038,1131690
9.86775,1204122
9.87513,1253073
9.88252,1215909
9.88988,1491466
9.89727,1768585
9.90463,1612816
9.91202,1240544
9.91938,1142558
9.92677,1257390
9.93415,1122271
9.94152,1073705
9.9489,1167100
9.95627,1027815
9.96365,969968
9.97103,980063
9.9784,957841
9.98578,952056
9.99315,972651
10.0005,1020851
10.0079,999428
10.0153,931268
10.0227,991761
10.03,1032300
10.0374,1032292
10.0448,1046534
10.0522,1028909
10.0596,1093136
10.0669,1060123
10.0743,1079181
10.0817,1294286
10.0891,1915928
10.0964,3317112
10.1038,3079084
10.1112,1692578
10.1186,1238577
10.1259,1162890
10.1333,1271659
10.1407,1244611
10.1481,1080522
10.1554,1032515
10.1628,1106957
10.1702,1104384
10.1776,1216918
10.1849,1262872
10.1923,1216187
10.1997,1109854
10.2071,997795
10.2145,1013957
10.2218,965398
10.2292,996185
10.2366,1031973
10.244,1030925
10.2513,1037197
10.2587,940834
10.2661,990631
10.2735,947794
10.2808,953939
10.2882,954782
10.2956,907641
10.303,937296
10.3103,958542
10.3177,1060765
10.3251,1085390
10.3325,957289
10.3399,933564
10.3472,961082
10.3546,943828
10.362,994958
10.3694,951200
10.3767,889782
10.3841,937421
10.3915,1035582
10.3989,926311
10.4062,927209
10.4136,960735
10.421,958866
10.4284,985975
10.4357,924585
10.4431,974213
10.4505,1033257
10.4579,1042012
10.4653,1021889
10.4726,975466
10.48,1009375
10.4874,989977
10.4948,992547
10.5021,960739
10.5095,987946
10.5169,993478
10.5243,984010
10.5316,990611
10.539,915264
10.5464,885632
10.5538,930324
10.5611,1035961
10.5685,1039155
10.5759,1045539
10.5833,1010155
10.5906,944863
10.598,984387
10.6054,1099447
10.6128,1011013
10.6202,1009725
10.6275,1340564
10.6349,1745963
10.6423,1678434
10.6497,1264254
10.657,1018528
10.6644,1002223
10.6718,915633
10.6792,1033372
10.6865,1023578
10.6939,1069829
10.7013,1087518
10.7087,1111069
10.716,1100922
10.7234,1040247
10.7308,1028985
10.7382,1039246
10.7456,1049488
10.7529,1066823
10.7603,1064055
10.7677,1029404
10.7751,977499
10.7824,1008559
10.7898,1042278
10.7972,1125273
10.8046,1092781
10.8119,885031
10.8193,856925
10.8267,858587
10.8341,1018078
10.8414,1049079
10.8488,898290
10.8562,892321
10.8636,918171
10.871,900201
10.8783,861262
10.8857,838120
10.8931,908290
10.9005,908911
10.9078,968662
10.9152,982742
10.9226,936418
10.93,905155
10.9373,1288285
10.9447,2622853
10.9521,3236713
10.9595,2042376
10.9668,1162892
10.9742,938805
10.9816,905052
10.989,920009
10.9963,900241
11.0037,877567
11.0111,852609
11.0185,911049
11.0259,923286
11.0332,896907
11.0406,888962
11.048,800131
11.0554,800275
11.0627,866275
11.0701,851738
11.0775,851608
11.0849,877100
11.0922,795327
11.0996,774789
11.107,778798
11.1144,810626
11.1217,1077114
11.1291,1175560
11.1365,1212333
11.1439,1276176
11.1513,1131099
11.1586,998939
11.166,1151012
11.1734,1290248
11.1808,1371920
11.1881,1316720
11.1955,1173003
11.2029,1147867
11.2103,1279957
11.2176,1298630
11.225,1393873
11.2324,1413853
11.2398,1240050
11.2471,922697
11.2545,936881
11.2619,1224093
11.2693,1258076
11.2767,1267214
11.284,1384174
11.2914,1375123
11.2988,1339049
11.3062,1314474
11.3135,1412049
11.3209,1573312
11.3283,1602641
11.3357,1560615
11.343,1543415
11.3504,1635059
11.3578,1659642
11.3652,1546260
11.3725,1184497
11.3799,1078558
11.3873,1092296
11.3947,1208880
11.402,1294363
11.4094,1209387
11.4168,1341854
11.4242,1328366
11.4316,1280986
11.4389,1432517
11.4463,1355311
11.4537,1398857
11.4611,1496675
11.4684,1620508
11.4758,1537242
11.4832,1449452
11.4906,1657825
11.4979,1544994
11.5053,1465990
11.5127,1627555
11.5201,1699199
11.5274,1603942
11.5348,1568057
11.5422,1388955
11.5496,1441371
11.557,1466708
11.5643,1488340
11.5717,1483528
11.5791,1294416
11.5865,1180636
11.5938,1231949
11.6012,1286185
11.6086,1269201
11.616,1254740
11.6233,1315635
11.6307,1217907
11.6381,1155327
11.6455,1135745
11.6528,1283389
11.6602,1246333
11.6676,1189082
11.675,1168051
11.6824,1137090
11.6897,1347967
11.6971,1441130
11.7045,1385780
11.7119,1234522
11.7192,1036861
11.7266,1052120
11.734,1202779
11.7414,1281112
11.7487,2041686
11.7561,2916711
11.7635,2264767
11.7709,1550120
11.7782,1378743
11.7856,1402823
11.793,1529851
11.8004,1508152
11.8078,1635646
11.8151,1568811
11.8225,1551652
11.8299,1609452
11.8373,1391697
11.8446,1380680
11.852,1349593
11.8594,1314816
11.8668,1235121
11.8741,1165309
11.8815,1216564
11.8889,1220788
11.8963,1163628
11.9036,1418856
11.911,1394352
11.9184,1532590
11.9258,1498233
11.9331,1499150
11.9405,1389091
11.9479,992200
11.9553,1008658
11.9627,1004583
11.97,1009211
11.9774,964011
11.9848,1042635
11.9922,1006112
11.9995,1169395
12.0069,963625
12.0143,1057475
12.0217,1293866
12.029,1190786
12.0364,1070179
12.0438,1080834
12.0512,1017224
12.0585,849336
12.0659,779282
12.0733,802529
12.0807,858476
12.0881,877803
12.0954,924245
12.1028,973256
12.1102,979777
12.1176,901398
12.1249,1022908
12.1323,1221796
12.1397,1359183
12.1471,1165524
12.1544,1062604
12.1618,920110
12.1692,947559
12.1766,952858
12.1839,948851
12.1913,976671
12.1987,1019281
12.2061,1028301
12.2135,1036955
12.2208,1011806
12.2282,1153821
12.2356,1161675
12.243,1134105
12.2503,1160874
12.2577,1219961
12.2651,1214455
12.2725,1135185
12.2798,1100989
12.2872,1090494
12.2946,1085375
12.302,1197283
12.3093,1263852
12.3167,1217781
12.3241,1103596
12.3315,1196956
12.3388,1360572
12.3462,1326051
12.3536,1235229
12.361,1252192
12.3684,1245935
12.3757,1262102
12.3831,1223396
12.3905,1303563
12.3979,1294284
12.4052,1212364
12.4126,1185178
12.42,1059252
12.4274,988248
12.4347,1041557
12.4421,941088
12.4495,912946
12.4569,921988
12.4642,976460
12.4716,917622
12.479,999906
12.4864,1107770
12.4938,982794
12.5011,1102467
12.5085,1445163
12.5159,1927988
12.5233,1890400
12.5306,1154114
12.538,873815
12.5454,1087234
12.5528,1123896
12.5601,1254662
12.5675,1396452
12.5749,1197570
12.5823,1055797
12.5896,1008093
12.597,1010322
12.6044,936356
12.6118,976418
12.6192,987986
12.6265,911625
12.6339,1000647
12.6413,951641
12.6487,970684
12.656,1002287
12.6634,1023887
12.6708,904236
12.6782,904726
12.6855,956223
12.6929,976107
12.7003,970449
12.7077,969808
12.715,962870
12.7224,903361
12.7298,917430
12.7372,915721
12.7445,946074
12.7519,898250
12.7593,966843
12.7667,986045
12.7741,903634
12.7814,854652
12.7888,886008
12.7962,929308
12.8036,865724
12.8109,856450
12.8183,910124
12.8257,943047
12.8331,993507
12.8404,957259
12.8478,1062131
12.8552,1041514
12.8626,1056615
12.8699,1011135
12.8773,1010461
12.8847,1053651
12.8921,936034
12.8995,1002929
12.9068,1000078
12.9142,996607
12.9216,964785
12.929,940961
12.9363,1031767
12.9437,956260
12.9511,1028310
12.9585,943753
12.9658,1042685
12.9732,1075547
12.9806,1035430
12.988,1151584
12.9953,1337551
13.0027,1310463
13.0101,1202916
13.0175,1280355
13.0249,1264122
13.0322,1125020
13.0396,1148893
13.047,1053780
13.0544,1207677
13.0617,1167898
13.0691,1129806
13.0765,992770
13.0839,1013578
13.0912,1147502
13.0986,1208127
13.106,1319211
13.1134,1500526
13.1207,1267959
13.1281,1213425
13.1355,1363102
13.1429,1209203
13.1502,1183385
13.1576,1152033
13.165,1182425
13.1724,1045647
13.1798,881478
13.1871,944665
13.1945,1004720
13.2019,1012660
13.2093,1036307
13.2166,1012896
13.224,1045131
13.2314,969163
13.2388,1308927
13.2461,1658079
13.2535,1517870
13.2609,1250843
13.2683,1156893
13.2756,1023834
13.283,1013376
13.2904,955549
13.2978,1060199
13.3052,1104456
13.3125,1193259
13.3199,1310390
13.3273,1204243
13.3347,1161450
13.342,1219911
13.3494,1390487
13.3568,1223471
13.3642,1270969
13.3715,1159174
13.3789,1113807
13.3863,1220906
13.3937,1178517
13.401,1218718
13.4084,1227908
13.4158,1152621
13.4232,1128120
13.4306,1112933
13.4379,1023039
13.4453,948721
13.4527,1061667
13.4601,1150310
13.4674,1072721
13.4748,888347
13.4822,1034297
13.4896,1202385
13.4969,1072301
13.5043,1051658
13.5117,1103602
13.5191,970182
13.5264,986952
13.5338,925551
13.5412,929058
13.5486,1240159
13.556,1084159
13.5633,1174396
13.5707,1446429
13.5781,1294125
13.5855,1347871
13.5928,1290338
13.6002,1276844
13.6076,1267512
13.615,1282104
13.6223,1377891
13.6297,1407639
13.6371,1552415
13.6445,1467667
13.6518,1506403
13.6592,1450703
13.6666,1590429
13.674,1413078
13.6813,1353815
13.6887,1182941
13.6961,1146895
13.7035,1148763
13.7109,1203892
13.7182,1106989
13.7256,1200887
13.733,1130263
13.7404,1241760
13.7477,1152005
13.7551,1176450
13.7625,1191844
13.7699,1123362
13.7772,1241581
13.7846,1237249
13.792,1154979
13.7994,1168847
13.8067,1133709
13.8141,1118630
13.8215,1252941
13.8289,1314960
13.8363,1300431
13.8436,1246227
13.851,1184388
13.8584,1350311
13.8658,1332091
13.8731,1263641
13.8805,1269662
13.8879,1287670
13.8953,1216443
13.9026,1299177
13.91,1289242
13.9174,1068229
13.9248,1076782
13.9321,1392283
13.9395,1435421
13.9469,1256227
13.9543,1124266
13.9617,977085
13.969,1026465
13.9764,1115864
13.9838,1059225
13.9912,1030641
13.9985,1015549
14.0059,1010120
14.0133,1120437
14.0207,1101215
14.028,1109624
14.0354,1234783
14.0428,1195084
14.0502,1102998
14.0575,1128455
14.0649,1103017
14.0723,1224658
14.0797,1857047
14.087,1866860
14.0944,1337838
14.1018,934175
14.1092,1073554
14.1166,954107
14.1239,1009621
14.1313,1060317
14.1387,1033587
14.1461,1179459
14.1534,1108800
14.1608,1096243
14.1682,1032381
14.1756,1040571
14.1829,1086696
14.1903,1229774
14.1977,1193199
14.2051,1315099
14.2124,1331910
14.2198,1249771
14.2272,1128544
14.2346,984824
14.242,1085420
14.2493,1068534
14.2567,1357945
14.2641,1436771
14.2715,1451015
14.2788,1225107
14.2862,1159810
14.2936,1131906
14.301,1195035
14.3083,1073333
14.3157,1124313
14.3231,1069314
14.3305,1014339
14.3378,1023658
14.3452,1063647
14.3526,1147455
14.36,1080594
14.3674,1107038
14.3747,1058304
14.3821,1029527
14.3895,1030085
14.3969,1020773
14.4042,1064124
14.4116,992287
14.419,1042229
14.4264,924569
14.4337,1018726
14.4411,1082316
14.4485,995082
14.4559,1106681
14.4632,1251123
14.4706,1120318
14.478,1023020
14.4854,1119730
14.4927,1313811
14.5001,1254824
14.5075,1195222
14.5149,1328394
14.5223,1336849
14.5296,1363711
14.537,1166069
14.5444,1189811
14.5518,1110473
14.5591,1214303
14.5665,1324275
14.5739,1264460
14.5813,1269552
14.5886,1221164
14.596,1066568
14.6034,1036989
14.6108,1027123
14.6181,995355
14.6255,1069453
14.6329,1175444
14.6403,991117
14.6477,923960
14.655,1146838
14.6624,1195533
14.6698,1193803
14.6772,1035477
14.6845,1012921
14.6919,851182
14.6993,985786
14.7067,946322
14.714,937211
14.7214,994425
14.7288,1017043
14.7362,1056805
14.7435,1283087
14.7509,1171871
14.7583,1116939
14.7657,1090866
14.7731,938461
14.7804,982834
14.7878,1073732
14.7952,1091093
14.8026,1119121
14.8099,1087857
14.8173,1026858
14.8247,1003776
14.8321,1007301
14.8394,1046097
14.8468,1146604
14.8542,1087518
14.8616,1145634
14.8689,1027259
14.8763,1204864
14.8837,1151259
14.8911,1034003
14.8984,1143480
14.9058,1283163
14.9132,1100473
14.9206,1146226
14.928,1376331
14.9353,1427037
14.9427,1368230
14.9501,1500719
14.9575,1317486
14.9648,1321113
14.9722,1267529
14.9796,1487806
14.987,1479556
14.9943,1534087
15.0017,1521755
15.0091,1624461
15.0165,2907629
15.0238,2866330
15.0312,1767472
15.0386,1601817
15.046,1740183
15.0534,1839856
15.0607,1979619
15.0681,2068619
15.0755,2074770
15.0829,2068019
15.0902,2074332
15.0976,1996814
15.105,2154494
15.1124,1898250
15.1197,1650413
15.1271,1729940
15.1345,1520053
15.1419,1445858
15.1492,1445624
15.1566,1525067
15.164,1691597
15.1714,1396907
15.1788,1405925
15.1861,1546212
15.1935,1681654
15.2009,1664528
15.2083,1899656
15.2156,1783875
15.223,2009752
15.2304,2018945
15.2378,2176756
15.2451,2277400
15.2525,2185339
15.2599,2186146
15.2673,2239775
15.2746,2213987
15.282,2447082
15.2894,2354521
15.2968,2530255
15.3042,2452809
15.3115,2366346
15.3189,2252092
15.3263,2152176
15.3337,2127029
15.341,1933298
15.3484,2042829
15.3558,2106337
15.3632,2114811
15.3705,2221925
15.3779,2283233
15.3853,2380941
15.3927,2310100
15.4,2357739
15.4074,2387809
15.4148,2290968
15.4222,2185030
15.4295,2045242
15.4369,2113824
15.4443,2286402
15.4517,2162520
15.4591,2035882
15.4664,1659095
15.4738,1373243
15.4812,1497912
15.4886,1839610
15.4959,2177877
15.5033,2298980
15.5107,2398854
15.5181,2711643
15.5254,2573254
15.5328,2602602
15.5402,2552928
15.5476,2458611
15.5549,2493335
15.5623,2161552
15.5697,2522152
15.5771,2613956
15.5845,2742951
15.5918,2768885
15.5992,1759950
15.6066,1652624
15.614,1714691
15.6213,1879313
15.6287,1657828
15.6361,1842862
15.6435,1812900
15.6508,1657705
15.6582,1636551
15.6656,1591396
15.673,1716999
15.6803,1622642
15.6877,1646808
15.6951,1595748
15.7025,1707780
15.7099,1677764
15.7172,1848181
15.7246,1785526
15.732,1889091
15.7394,1806552
15.7467,1749144
15.7541,1792554
15.7615,1676115
15.7689,1621201
15.7762,1884492
15.7836,1803592
15.791,1659773
15.7984,1895266
15.8057,1867475
15.8131,1438340
15.8205,1456006
15.8279,1515097
15.8352,1270511
15.8426,1499083
15.85,1585733
15.8574,1366655
15.8648,1404615
15.8721,1542578
15.8795,1433843
15.8869,1473903
15.8943,1187264
15.9016,1155002
15.909,1160005
15.9164,1237588
15.9238,1158912
15.9311,1331545
15.9385,1392623
15.9459,1429012
15.9533,1360609
15.9606,1541391
15.968,1555310
15.9754,1399627
15.9828,1429532
15.9902,1554382
15.9975,1636728
16.0049,1598736
16.0123,1443210
16.0196,1515013
16.027,1403799
16.0344,1499690
16.0418,1563649
16.0492,1967566
16.0565,1907040
16.0639,1791527
16.0713,1926104
16.0787,1782059
16.086,1787554
16.0934,1784649
16.1008,1905101
16.1082,1813331
16.1155,1628479
16.1229,1709405
16.1303,2069484
16.1377,2070769
16.1451,1934424
16.1524,1727311
16.1598,1754063
16.1672,1631823
16.1746,1355113
16.1819,1413557
16.1893,1520412
16.1967,1597821
16.2041,1538554
16.2114,1659964
16.2188,1465160
16.2262,1595899
16.2336,1502312
16.2409,1512791
16.2483,1674744
16.2557,1592534
16.2631,1636250
16.2705,1559482
16.2778,1535906
16.2852,1600431
16.2926,1747580
16.2999,1730511
16.3073,1545619
16.3147,1655121
16.3221,1686059
16.3295,1874950
16.3368,1824614
16.3442,1797943
16.3516,1841468
16.359,1825317
16.3663,2205533
16.3737,1675111
16.3811,1934342
16.3885,1850844
16.3958,1838204
16.4032,1780504
16.4106,1935299
16.418,2626112
16.4254,2167858
16.4327,1621293
16.4401,1784537
16.4475,1864093
16.4549,1742127
16.4622,1905183
16.4696,1791110
16.477,1839788
16.4844,1985769
16.4917,1975613
16.4991,1928033
16.5065,1770536
16.5139,1637089
16.5212,1900341
16.5286,2286427
16.536,1994815
16.5434,1719808
16.5508,1677659
16.5581,1699459
16.5655,1796585
16.5729,1611194
16.5802,1638602
16.5876,1532533
16.595,1705764
16.6024,1619966
16.6098,1450327
16.6171,1367320
16.6245,1329018
16.6319,1324547
16.6393,1606562
16.6466,1646148
16.654,1143294
16.6614,1210756
16.6688,1261741
16.6762,1292607
16.6835,1235563
16.6909,1318302
16.6983,1334129
16.7056,1334036
16.713,1297338
16.7204,1317207
16.7278,1350242
16.7352,1472977
16.7425,1289159
16.7499,1377056
16.7573,1399237
16.7647,1377707
16.772,1543026
16.7794,1588535
16.7868,1287910
16.7942,1313033
16.8015,1449395
16.8089,1446858
16.8163,2196274
16.8237,1594235
16.8311,1625194
16.8384,1579693
16.8458,1583209
16.8532,1402906
16.8606,1418181
16.8679,1542705
16.8753,1748414
16.8827,2195895
16.8901,2388066
16.8974,2014119
16.9048,1233151
16.9122,1182900
16.9196,1219195
16.927,1229021
16.9343,998081
16.9417,993568
16.9491,1085296
16.9565,1246279
16.9638,1312261
16.9712,1331726
16.9786,1179268
16.9859,1298352
16.9933,2268784
17.0007,1745892
17.0081,1550824
17.0155,1489697
17.0228,1556881
17.0302,1509323
17.0376,1157574
17.045,1037785
17.0524,1381917
17.0597,1466746
17.0671,1081780
17.0745,1467922
17.0818,1523089
17.0892,1523391
17.0966,1584288
17.104,1511983
17.1114,1477115
17.1187,1343232
17.1261,1230780
17.1335,1535260
17.1409,1728229
17.1482,1910454
17.1556,1827568
17.163,1444882
17.1704,1366559
17.1777,1326045
17.1851,1123120
17.1925,893742
17.1999,1068889
17.2072,1032063
17.2146,1088704
17.222,1117423
17.2294,1267682
17.2368,1337715
17.2441,1342665
17.2515,1467114
17.2589,1333928
17.2662,1323009
17.2736,1315528
17.281,1656376
17.2884,1725689
17.2958,1528984
17.3031,1252541
17.3105,1347162
17.3179,1253265
17.3253,1229594
17.3327,1162268
17.34,1202178
17.3474,1323486
17.3548,1188900
17.3622,1255537
17.3695,1444361
17.3769,1289407
17.3843,1298469
17.3916,1287768
17.399,1180128
17.4064,1377153
17.4138,1357625
17.4212,1280026
17.4285,1199683
17.4359,1180775
17.4433,1087122
17.4507,1174841
17.4581,1191817
17.4654,1161625
17.4728,1186720
17.4802,1238822
17.4876,1363254
