D:\Data GC-MS\2017\ST\SOLER\SOL - HAIFA.D 02 Feb 17  02:18 pm
Start of data points
1.29373,11975
1.30047,12090
1.30722,12115
1.31395,11906
1.3207,11739
1.32745,12318
1.33418,12067
1.34093,11979
1.34767,12009
1.35442,12131
1.36115,11921
1.3679,11846
1.37465,12167
1.38138,11927
1.38813,12201
1.39487,11972
1.40162,12060
1.40835,12002
1.4151,11902
1.42185,11753
1.42858,11948
1.43533,11520
1.44207,11620
1.44882,11568
1.45555,11713
1.4623,11909
1.46905,11375
1.47578,11791
1.48253,11371
1.48927,11685
1.51013,36080
1.51752,35685
1.52488,35786
1.53227,36469
1.53963,36133
1.54702,35936
1.55438,36140
1.56177,36685
1.56915,36466
1.57652,36367
1.5839,35682
1.59127,35706
1.59865,36627
1.60603,36290
1.6134,36191
1.62078,35391
1.62815,36622
1.63553,35947
1.6429,35401
1.65028,36811
1.65767,35728
1.66503,35456
1.67242,35198
1.67978,35418
1.68717,35984
1.69453,35545
1.70192,36069
1.7093,35771
1.71667,35518
1.72405,35171
1.73142,35061
1.7388,36377
1.74618,35805
1.75355,35414
1.76093,36037
1.7683,36244
1.77568,35283
1.78305,36340
1.79043,35913
1.79782,35272
1.80518,35038
1.81257,35443
1.81993,35588
1.82732,35579
1.8347,35531
1.84207,35699
1.84945,36446
1.85682,35602
1.8642,35918
1.87157,35486
1.87895,35794
1.88633,35758
1.8937,35193
1.90108,36087
1.90845,35595
1.91583,36046
1.92322,35835
1.93058,36001
1.93797,35870
1.94533,36058
1.95272,35012
1.96008,35122
1.96747,35548
1.97485,36555
1.98222,36529
1.9896,35843
1.99697,35511
2.00435,35790
2.01173,36516
2.0191,35903
2.02648,35822
2.03385,36511
2.04123,35937
2.0486,36952
2.05598,36373
2.06337,36803
2.07073,36270
2.07812,36913
2.08548,37413
2.09287,37425
2.10025,38002
2.10762,37425
2.115,36975
2.12237,37182
2.12975,37697
2.13712,37992
2.1445,37344
2.15188,37103
2.15925,37498
2.16663,36881
2.174,36712
2.18138,37146
2.18877,37865
2.19613,37755
2.20352,36869
2.21088,37551
2.21827,37500
2.22563,36334
2.23302,36535
2.2404,37324
2.24777,36773
2.25515,37695
2.26252,37160
2.2699,37192
2.27727,37329
2.28465,37223
2.29203,37208
2.2994,37621
2.30678,36873
2.31415,37777
2.32153,36230
2.32892,38299
2.33628,37147
2.34367,37669
2.35103,37947
2.35842,37970
2.36578,37693
2.37317,38562
2.38055,38931
2.38792,37876
2.3953,37865
2.40267,38601
2.41005,38050
2.41743,37832
2.4248,38652
2.43218,38327
2.43955,38248
2.44693,39018
2.4543,38545
2.46168,39450
2.46907,38343
2.47643,38502
2.48382,39147
2.49118,39281
2.49857,39382
2.50595,39608
2.51332,38872
2.5207,38562
2.52807,40262
2.53545,39738
2.54282,39307
2.5502,39010
2.55758,39363
2.56495,38858
2.57233,38978
2.5797,38451
2.58708,39185
2.59447,39587
2.60183,39163
2.60922,40234
2.61658,39062
2.62397,40278
2.63133,39592
2.63872,40050
2.6461,39833
2.65347,40440
2.66085,39810
2.66822,39996
2.6756,39883
2.68298,38840
2.69035,39397
2.69773,38808
2.7051,40019
2.71248,39918
2.71985,40680
2.72723,40281
2.73462,40114
2.74198,40933
2.74937,40956
2.75673,40333
2.76412,40593
2.7715,41165
2.77887,39646
2.78625,41055
2.79362,40726
2.801,41364
2.80837,40155
2.81575,40308
2.82313,41656
2.8305,40302
2.83788,40202
2.84525,41208
2.85263,40931
2.86,40802
2.86738,41010
2.87477,41972
2.88213,41110
2.88952,41084
2.89688,41246
2.90427,41757
2.91165,41732
2.91902,41539
2.9264,41417
2.93377,42133
2.94115,41342
2.94852,40868
2.9559,41848
2.96328,42424
2.97065,42252
2.97803,43184
2.9854,42222
2.99278,41738
3.00017,43266
3.00753,43453
3.01492,42742
3.02228,43227
3.02967,42736
3.03703,42575
3.04442,43482
3.0518,43390
3.05917,41243
3.06655,42420
3.07392,43385
3.0813,44016
3.08868,42655
3.09605,43710
3.10343,43249
3.1108,43460
3.11818,42376
3.12555,42797
3.13293,43841
3.14032,44334
3.14768,44397
3.15507,43400
3.16243,43474
3.16982,43421
3.1772,43661
3.18457,43428
3.19195,44737
3.19932,43463
3.2067,44505
3.21407,43637
3.22145,44117
3.22883,43985
3.2362,45459
3.24358,44684
3.25095,44855
3.25833,43771
3.26572,44549
3.27308,45367
3.28047,44946
3.28783,45038
3.29522,45255
3.30258,43932
3.30997,45146
3.31735,44908
3.32472,44601
3.3321,44946
3.33947,45777
3.34685,45841
3.35423,45649
3.3616,44144
3.36898,46210
3.37635,45165
3.38373,45924
3.3911,44720
3.39848,45559
3.40587,46579
3.41323,46814
3.42062,46357
3.42798,45880
3.43537,47600
3.44273,47817
3.45012,48806
3.4575,49011
3.46487,50555
3.47225,49701
3.47962,49162
3.487,49623
3.49438,48879
3.50175,48974
3.50913,49770
3.5165,48388
3.52388,49170
3.53125,48175
3.53863,47410
3.54602,47515
3.55338,47327
3.56077,48271
3.56813,48687
3.57552,49482
3.5829,49236
3.59027,49986
3.59765,48026
3.60502,49564
3.6124,49054
3.61977,48522
3.62715,48239
3.63453,48316
3.6419,48596
3.64928,47616
3.65665,49239
3.66403,48173
3.67142,49418
3.67878,49909
3.68617,49154
3.69353,48658
3.70092,49203
3.70828,49433
3.71567,49821
3.72305,49639
3.73042,50499
3.7378,49456
3.74517,49786
3.75255,49321
3.75993,48820
3.7673,50376
3.77468,48802
3.78205,49704
3.78943,50345
3.7968,50464
3.80418,51793
3.81157,51881
3.81893,51771
3.82632,51827
3.83368,51537
3.84107,51486
3.84845,52348
3.85582,50949
3.8632,50196
3.87057,50632
3.87795,50504
3.88532,51670
3.8927,51688
3.90008,51194
3.90745,51830
3.91483,51646
3.9222,51175
3.92958,51044
3.93697,50652
3.94433,51194
3.95172,50305
3.95908,51018
3.96647,51076
3.97383,50535
3.98122,50589
3.9886,50740
3.99597,50963
4.00335,50924
4.01072,51464
4.0181,51048
4.02548,51089
4.03285,51277
4.04023,52944
4.0476,50983
4.05498,49611
4.06235,47833
4.06973,47617
4.07712,47613
4.08448,46982
4.09187,47415
4.09923,46541
4.10662,47510
4.11398,47277
4.12137,47227
4.12875,47160
4.13612,49079
4.1435,48275
4.15087,48939
4.15825,48356
4.16563,48322
4.173,50361
4.18038,50090
4.18775,49905
4.19513,50378
4.2025,50788
4.20988,50476
4.21727,52351
4.22463,54322
4.23202,53649
4.23938,52168
4.24677,52484
4.25415,51961
4.26152,51625
4.2689,53192
4.27627,49843
4.28365,50982
4.29102,52035
4.2984,51924
4.30578,51147
4.31315,52649
4.32053,50341
4.3279,51253
4.33528,50731
4.34267,50595
4.35003,49865
4.35742,49224
4.36478,48827
4.37217,48988
4.37953,48501
4.38692,50911
4.3943,49519
4.40167,49817
4.40905,48216
4.41642,47011
4.4238,49340
4.43118,48816
4.43855,50847
4.44593,49557
4.4533,50215
4.46068,47911
4.46805,48454
4.47543,48675
4.48282,48552
4.49018,48090
4.49757,48606
4.50493,48223
4.51232,47488
4.5197,47055
4.52707,47372
4.53445,47449
4.54182,48236
4.5492,47542
4.55657,49900
4.56395,52318
4.57133,52811
4.5787,50633
4.58608,50179
4.59345,48681
4.60083,48189
4.60822,47176
4.61558,47450
4.62297,46393
4.63033,47035
4.63772,48783
4.64508,52772
4.65247,54928
4.65985,55627
4.66722,53904
4.6746,50786
4.68197,49476
4.68935,47874
4.69672,46608
4.7041,47272
4.71148,48914
4.71885,47707
4.72623,49877
4.7336,48983
4.74098,48910
4.74837,48797
4.75573,47050
4.76312,47427
4.77048,49033
4.77787,48324
4.78523,48216
4.79262,47040
4.8,48913
4.80737,50640
4.81475,49422
4.82212,52159
4.8295,51700
4.83688,53477
4.84425,51600
4.85163,51995
4.859,54144
4.86638,56547
4.87375,55369
4.88113,54101
4.88852,53870
4.89588,51901
4.90327,51366
4.91063,50168
4.91802,49484
4.9254,50412
4.93277,52371
4.94015,51836
4.94752,50374
4.9549,49743
4.96227,48474
4.96965,55364
4.97703,65221
4.9844,71952
4.99178,64061
4.99915,56901
5.00653,52867
5.01392,50114
5.02128,48918
5.02867,47595
5.03603,47072
5.04342,47299
5.05078,49568
5.05817,50294
5.06555,52769
5.07292,53339
5.0803,53566
5.08767,57500
5.09505,61653
5.10243,60998
5.1098,56860
5.11718,53074
5.12455,53056
5.13193,53191
5.1393,52626
5.14668,51889
5.15407,50557
5.16143,49392
5.16882,48719
5.17618,49286
5.18357,50246
5.19095,52058
5.19832,53456
5.2057,52195
5.21307,50643
5.22045,50698
5.22782,50928
5.2352,52560
5.24258,54054
5.24995,58085
5.25733,61912
5.2647,62217
5.27208,60915
5.27945,58922
5.28683,56476
5.29422,52853
5.30158,54540
5.30897,54612
5.31633,57497
5.32372,58946
5.3311,60107
5.33847,58210
5.34585,59397
5.35322,61362
5.3606,74226
5.36797,85420
5.37535,95364
5.38273,90863
5.3901,78474
5.39748,72153
5.40485,69769
5.41223,65144
5.41962,60285
5.42698,57267
5.43437,56166
5.44173,57793
5.44912,60299
5.45648,63006
5.46387,68987
5.47125,76894
5.47862,76555
5.486,70259
5.49337,65872
5.50075,65483
5.50813,63773
5.5155,62086
5.52288,63530
5.53025,64315
5.53763,63499
5.545,63943
5.55238,61137
5.55977,60120
5.56713,63672
5.57452,64255
5.58188,66094
5.58927,64761
5.59665,61401
5.60402,62765
5.6114,67261
5.61877,75685
5.62615,80118
5.63352,79656
5.6409,75532
5.64828,74812
5.65565,70387
5.66303,67168
5.6704,70438
5.67778,86453
5.68517,95872
5.69253,103852
5.69992,112191
5.70728,100843
5.71467,90632
5.72203,103340
5.72942,131728
5.7368,136672
5.74417,121271
5.75155,102811
5.75892,96479
5.7663,86149
5.77368,80395
5.78105,77569
5.78843,74404
5.7958,82776
5.80318,104761
5.81055,126854
5.81793,116525
5.82532,93503
5.83268,78621
5.84007,74695
5.84743,75845
5.85482,84765
5.86218,94439
5.86957,97259
5.87695,92650
5.88432,89566
5.8917,92828
5.89907,93262
5.90645,87250
5.91383,84824
5.9212,80340
5.92858,81072
5.93595,82119
5.94333,83500
5.9507,87713
5.95808,88553
5.96547,90161
5.97283,104783
5.98022,118470
5.98758,116465
5.99497,104831
6.00235,103046
6.00972,107598
6.0171,107299
6.02447,102274
6.03185,93614
6.03922,89464
6.0466,91557
6.05398,99536
6.06135,96438
6.06873,100780
6.0761,103422
6.08348,93608
6.09087,82946
6.09823,102048
6.10562,147120
6.11298,171377
6.12037,186922
6.12773,274476
6.13512,287807
6.1425,172456
6.14987,104114
6.15725,85331
6.16462,80071
6.172,85091
6.17938,92089
6.18675,90053
6.19413,77712
6.2015,71090
6.20888,67295
6.21625,65092
6.22363,69516
6.23102,76820
6.23838,76024
6.24577,69852
6.25313,68571
6.26052,76532
6.2679,81605
6.27527,81341
6.28265,85553
6.29002,92065
6.2974,88409
6.30477,81286
6.31215,76831
6.31953,76896
6.3269,80995
6.33428,80411
6.34165,78205
6.34903,82952
6.35642,82852
6.36378,78585
6.37117,79718
6.37853,107494
6.38592,143661
6.39328,129849
6.40067,88901
6.40805,72132
6.41542,75810
6.4228,76957
6.43017,79657
6.43755,97416
6.44493,119026
6.4523,115532
6.45968,101556
6.46705,90187
6.47443,78308
6.4818,71124
6.48918,70171
6.49657,74568
6.50393,80393
6.51132,85199
6.51868,99274
6.52607,113389
6.53343,116363
6.54082,99950
6.5482,86331
6.55557,96531
6.56295,114917
6.57032,116807
6.5777,95494
6.58508,81425
6.59245,80384
6.59983,81728
6.6072,86542
6.61458,81782
6.62195,76414
6.62933,73381
6.63672,79924
6.64408,83332
6.65147,83944
6.65883,77384
6.66622,78463
6.6736,84917
6.68097,93264
6.68835,94460
6.69572,87485
6.7031,83894
6.71047,89624
6.71785,92722
6.72523,97148
6.7326,96146
6.73998,97234
6.74735,105017
6.75473,108821
6.76212,112441
6.76948,106950
6.77687,81137
6.78423,71563
6.79162,91980
6.79898,124628
6.80637,133141
6.81375,112438
6.82112,129520
6.8285,165004
6.83587,177708
6.84325,147099
6.85063,103612
6.858,88473
6.86538,85124
6.87275,82564
6.88013,81905
6.8875,80952
6.89488,79893
6.90227,100461
6.90963,133767
6.91702,127244
6.92438,101149
6.93177,85667
6.93915,76909
6.94652,78004
6.9539,81678
6.96127,75772
6.96865,70875
6.97602,67712
6.9834,69945
6.99078,74689
6.99815,71765
7.00553,72139
7.0129,78432
7.02028,81588
7.02767,88401
7.03503,97627
7.04242,100443
7.04978,102055
7.05717,102259
7.06453,90468
7.07192,85079
7.0793,79018
7.08667,91080
7.09405,113625
7.10142,109067
7.1088,84973
7.11617,91558
7.12355,112191
7.13093,115138
7.1383,103077
7.14568,94532
7.15305,91399
7.16043,97411
7.16782,99945
7.17518,88105
7.18257,76797
7.18993,76941
7.19732,84627
7.20468,117455
7.21207,241934
7.21945,394464
7.22682,285034
7.2342,131780
7.24157,93621
7.24895,92064
7.25633,101206
7.2637,121689
7.27108,118097
7.27845,105050
7.28583,94776
7.2932,86669
7.30058,76587
7.30797,81451
7.31533,101088
7.32272,112246
7.33008,104309
7.33747,93999
7.34485,88093
7.35222,88860
7.3596,89068
7.36697,85005
7.37435,88861
7.38172,100070
7.3891,100774
7.39648,102264
7.40385,107214
7.41123,95189
7.4186,92844
7.42598,127376
7.43337,142412
7.44073,115832
7.44812,101402
7.45548,110566
7.46287,109886
7.47023,94413
7.47762,77317
7.485,74259
7.49237,83585
7.49975,114187
7.50712,151689
7.5145,131852
7.52188,88461
7.52925,76829
7.53663,70746
7.544,68766
7.55138,66645
7.55875,72834
7.56613,81640
7.57352,86761
7.58088,90793
7.58827,87416
7.59563,88113
7.60302,107016
7.6104,126921
7.61777,111340
7.62515,95039
7.63252,108543
7.6399,105830
7.64727,91523
7.65465,94647
7.66203,112279
7.6694,110379
7.67678,93960
7.68415,95198
7.69153,97635
7.6989,89086
7.70628,83155
7.71367,89348
7.72103,100594
7.72842,102690
7.73578,104865
7.74317,103196
7.75055,95280
7.75792,91998
7.7653,92996
7.77267,95148
7.78005,108945
7.78742,117140
7.7948,118573
7.80218,109311
7.80955,96665
7.81693,99264
7.8243,106949
7.83168,132441
7.83907,156666
7.84643,139126
7.85382,114016
7.86118,102673
7.86857,122217
7.87593,158336
7.88332,149935
7.8907,110560
7.89807,102953
7.90545,106605
7.91282,96443
7.9202,79655
7.92758,75084
7.93495,79161
7.94233,101964
7.9497,141651
7.95708,141263
7.96445,120147
7.97183,105519
7.97922,90743
7.98658,86035
7.99397,95966
8.00133,104782
8.00872,101685
8.0161,92612
8.02347,87328
8.03085,82572
8.03822,77714
8.0456,78725
8.05297,82998
8.06035,84312
8.06773,77244
8.0751,71437
8.08248,71501
8.08985,74904
8.09723,78386
8.10462,82434
8.11198,89082
8.11937,88170
8.12673,89408
8.13412,107074
8.14148,132466
8.14887,149053
8.15625,132066
8.16362,118197
8.171,106416
8.17837,97934
8.18575,100133
8.19313,109479
8.2005,123875
8.20788,126398
8.21525,115834
8.22263,121981
8.23,211767
8.23738,403470
8.24477,399825
8.25213,196920
8.25952,111742
8.26688,103826
8.27427,104056
8.28163,102056
8.28902,105830
8.2964,105474
8.30377,105969
8.31115,107522
8.31852,109765
8.3259,103914
8.33328,91315
8.34065,87284
8.34803,94394
8.3554,105996
8.36278,111299
8.37015,138453
8.37753,189085
8.38492,172590
8.39228,114796
8.39967,94305
8.40703,91470
8.41442,98210
8.4218,96026
8.42917,95428
8.43655,91793
8.44392,84470
8.4513,86417
8.45867,103582
8.46605,108716
8.47343,97044
8.4808,83625
8.48818,75760
8.49555,73981
8.50293,85660
8.51032,95990
8.51768,93815
8.52507,91938
8.53243,90624
8.53982,89351
8.54718,102346
8.55457,109610
8.56195,100423
8.56932,89810
8.5767,91639
8.58407,92455
8.59145,87824
8.59883,93789
8.6062,107651
8.61358,103640
8.62095,86870
8.62833,78649
8.6357,78520
8.64308,81063
8.65047,83919
8.65783,88624
8.66522,104888
8.67258,127234
8.67997,132995
8.68735,120845
8.69472,114607
8.7021,102765
8.70947,95905
8.71685,88579
8.72422,81685
8.7316,78745
8.73898,84480
8.74635,103861
8.75373,107021
8.7611,107455
8.76848,126330
8.77587,121715
8.78323,97457
8.79062,87718
8.79798,92082
8.80537,101041
8.81273,117953
8.82012,115109
8.8275,113408
8.83487,111308
8.84225,102629
8.84962,113374
8.857,136114
8.86438,124542
8.87175,105151
8.87913,104887
8.8865,98625
8.89388,83456
8.90125,80256
8.90863,89288
8.91602,108636
8.92338,128541
8.93077,128457
8.93813,153055
8.94552,199750
8.95288,158987
8.96027,116336
8.96765,107175
8.97502,98435
8.9824,91161
8.98977,105096
8.99715,119756
9.00453,110726
9.0119,95288
9.01928,86700
9.02665,86434
9.03403,83483
9.0414,83245
9.04878,83253
9.05617,85663
9.06353,81853
9.07092,77367
9.07828,82274
9.08567,95353
9.09305,104644
9.10042,98486
9.1078,90445
9.11517,92059
9.12255,94317
9.12992,100749
9.1373,109609
9.14468,111752
9.15205,109823
9.15943,100734
9.1668,98425
9.17418,106720
9.18157,127828
9.18893,246596
9.19632,466100
9.20368,407874
9.21107,192755
9.21843,115673
9.22582,107276
9.2332,102599
9.24057,102341
9.24795,112931
9.25532,124490
9.2627,123043
9.27008,114755
9.27745,102569
9.28483,103396
9.2922,110495
9.29958,119402
9.30695,115525
9.31433,99232
9.32172,91128
9.32908,94703
9.33647,97120
9.34383,101119
9.35122,108760
9.3586,113337
9.36597,130936
9.37335,140914
9.38072,110657
9.3881,87757
9.39547,87656
9.40285,90889
9.41023,88764
9.4176,90128
9.42498,85418
9.43235,77288
9.43973,78652
9.44712,88238
9.45448,98233
9.46187,99474
9.46923,97023
9.47662,98322
9.48398,110818
9.49137,121011
9.49875,114020
9.50612,104586
9.5135,106251
9.52087,105165
9.52825,107183
9.53562,99453
9.543,90403
9.55038,94179
9.55775,101026
9.56513,106614
9.5725,105153
9.57988,100129
9.58727,91566
9.59463,85762
9.60202,87482
9.60938,84751
9.61677,84532
9.62413,85207
9.63152,91287
9.6389,101746
9.64627,125990
9.65365,156561
9.66102,158879
9.6684,121738
9.67578,98443
9.68315,105490
9.69053,107677
9.6979,99241
9.70528,93100
9.71265,98942
9.72003,105812
9.72742,118046
9.73478,133039
9.74217,129293
9.74953,110795
9.75692,95364
9.7643,93898
9.77167,118777
9.77905,138256
9.78642,118647
9.7938,102230
9.80117,99525
9.80855,93119
9.81593,89795
9.8233,90417
9.83068,100526
9.83805,134762
9.84543,151882
9.85282,133562
9.86018,117928
9.86757,108838
9.87493,104354
9.88232,105361
9.88968,142028
9.89707,211291
9.90445,194305
9.91182,116838
9.9192,90631
9.92657,89743
9.93395,93636
9.94133,90719
9.9487,91613
9.95608,92125
9.96345,89465
9.97083,83865
9.9782,83968
9.98558,88686
9.99297,92794
10.0003,96282
10.0077,98347
10.0151,98953
10.0225,92938
10.0299,93117
10.0372,92614
10.0446,92773
10.052,98011
10.0594,102346
10.0667,106547
10.0741,114602
10.0815,132226
10.0889,230712
10.0962,486913
10.1036,501481
10.111,235831
10.1184,134582
10.1257,122945
10.1331,133658
10.1405,129929
10.1479,112029
10.1552,102865
10.1626,111013
10.17,121684
10.1774,122681
10.1848,124964
10.1921,127087
10.1995,119829
10.2069,108310
10.2143,101626
10.2216,103199
10.229,107275
10.2364,112541
10.2438,108879
10.2511,98414
10.2585,92989
10.2659,91826
10.2733,89313
10.2806,93296
10.288,102410
10.2954,97444
10.3028,94532
10.3102,91397
10.3175,95753
10.3249,98397
10.3323,99576
10.3397,102423
10.347,97808
10.3544,92717
10.3618,96179
10.3692,94886
10.3765,95179
10.3839,100248
10.3913,106446
10.3987,111213
10.406,106023
10.4134,103680
10.4208,109451
10.4282,109397
10.4356,104374
10.4429,102981
10.4503,105933
10.4577,106981
10.4651,103110
10.4724,103093
10.4798,108279
10.4872,112796
10.4946,109727
10.5019,112138
10.5093,118499
10.5167,122669
10.5241,131372
10.5314,130285
10.5388,112617
10.5462,106690
10.5536,122465
10.5609,146660
10.5683,159050
10.5757,143469
10.5831,119756
10.5905,109793
10.5978,122490
10.6052,133761
10.6126,116479
10.62,108402
10.6273,159955
10.6347,246950
10.6421,263990
10.6495,190466
10.6568,129882
10.6642,114969
10.6716,106789
10.679,101377
10.6863,99318
10.6937,98800
10.7011,114078
10.7085,140650
10.7159,128718
10.7232,105726
10.7306,99846
10.738,101753
10.7454,102175
10.7527,100454
10.7601,96457
10.7675,97008
10.7749,96428
10.7822,95411
10.7896,101667
10.797,118082
10.8044,120294
10.8117,106544
10.8191,95524
10.8265,97668
10.8339,114536
10.8413,115368
10.8486,105177
10.856,93858
10.8634,90490
10.8708,91741
10.8781,95504
10.8855,107871
10.8929,115395
10.9003,112550
10.9076,101859
10.915,105364
10.9224,105459
10.9298,113713
10.9371,189224
10.9445,448967
10.9519,576956
10.9593,341224
10.9666,170757
10.974,129390
10.9814,115858
10.9888,113820
10.9962,120338
11.0035,121701
11.0109,120302
11.0183,122619
11.0257,126266
11.033,119251
11.0404,112961
11.0478,109628
11.0552,111527
11.0625,114359
11.0699,117518
11.0773,115908
11.0847,107298
11.092,101617
11.0994,97702
11.1068,98398
11.1142,98593
11.1216,98992
11.1289,104652
11.1363,104803
11.1437,102543
11.1511,94949
11.1584,94176
11.1658,95008
11.1732,96336
11.1806,101394
11.1879,105842
11.1953,101602
11.2027,96498
11.2101,94437
11.2174,93571
11.2248,94642
11.2322,96665
11.2396,95525
11.247,93271
11.2543,89696
11.2617,86727
11.2691,85710
11.2765,88113
11.2838,90437
11.2912,93717
11.2986,93359
11.306,92640
11.3133,100725
11.3207,111721
11.3281,122538
11.3355,122185
11.3428,120051
11.3502,118468
11.3576,109476
11.365,112261
11.3723,118250
11.3797,117392
11.3871,113299
11.3945,117551
11.4019,116574
11.4092,112797
11.4166,132759
11.424,157237
11.4314,144418
11.4387,115455
11.4461,97666
11.4535,106123
11.4609,132373
11.4682,147289
11.4756,133534
11.483,129074
11.4904,132598
11.4977,126511
11.5051,112773
11.5125,106255
11.5199,115072
11.5273,129674
11.5346,119906
11.542,101959
11.5494,99144
11.5568,100369
11.5641,100557
11.5715,103882
11.5789,105032
11.5863,100034
11.5936,97389
11.601,100073
11.6084,98332
11.6158,94802
11.6231,93483
11.6305,98037
11.6379,93391
11.6453,95664
11.6527,94810
11.66,95139
11.6674,94439
11.6748,91299
11.6822,94716
11.6895,103820
11.6969,104930
11.7043,99598
11.7117,91781
11.719,94024
11.7264,95966
11.7338,98553
11.7412,151948
11.7485,363411
11.7559,493968
11.7633,314466
11.7707,155201
11.7781,115521
11.7854,109021
11.7928,112867
11.8002,115478
11.8076,121130
11.8149,120384
11.8223,115637
11.8297,114222
11.8371,111363
11.8444,106671
11.8518,107323
11.8592,104467
11.8666,99355
11.8739,99989
11.8813,97190
11.8887,95429
11.8961,100452
11.9034,105582
11.9108,104216
11.9182,102750
11.9256,107434
11.933,100718
11.9403,96648
11.9477,96679
11.9551,98194
11.9625,98083
11.9698,95999
11.9772,94959
11.9846,97322
11.992,96811
11.9993,94559
12.0067,95162
12.0141,95084
12.0215,94385
12.0288,96773
12.0362,94646
12.0436,90494
12.051,88479
12.0584,87985
12.0657,88613
12.0731,90174
12.0805,89464
12.0879,92380
12.0952,101258
12.1026,113378
12.11,119195
12.1174,116692
12.1247,141457
12.1321,190951
12.1395,184828
12.1469,146181
12.1542,119935
12.1616,108217
12.169,99354
12.1764,96798
12.1838,96791
12.1911,100999
12.1985,108640
12.2059,109413
12.2133,100994
12.2206,102849
12.228,105625
12.2354,122077
12.2428,147807
12.2501,135922
12.2575,107583
12.2649,97371
12.2723,96300
12.2796,99093
12.287,102988
12.2944,106207
12.3018,111899
12.3091,112140
12.3165,96613
12.3239,92131
12.3313,96618
12.3387,93371
12.346,91628
12.3534,90598
12.3608,91452
12.3682,90116
12.3755,88802
12.3829,87954
12.3903,90355
12.3977,93605
12.405,96089
12.4124,92380
12.4198,92845
12.4272,93245
12.4345,96297
12.4419,96585
12.4493,94431
12.4567,91684
12.4641,87729
12.4714,88277
12.4788,87064
12.4862,89689
12.4936,93016
12.5009,108967
12.5083,206661
12.5157,393136
12.5231,345072
12.5304,173672
12.5378,108318
12.5452,108285
12.5526,152513
12.5599,232074
12.5673,270798
12.5747,190865
12.5821,132223
12.5895,116268
12.5968,112627
12.6042,109771
12.6116,104922
12.619,103246
12.6263,102811
12.6337,96371
12.6411,94338
12.6485,91806
12.6558,93471
12.6632,91562
12.6706,92557
12.678,90832
12.6853,92588
12.6927,96761
12.7001,94743
12.7075,91266
12.7148,91344
12.7222,89544
12.7296,93134
12.737,93573
12.7444,91565
12.7517,89038
12.7591,89372
12.7665,90121
12.7739,89163
12.7812,92042
12.7886,90865
12.796,85514
12.8034,84688
12.8107,85467
12.8181,83844
12.8255,88848
12.8329,99824
12.8402,110121
12.8476,114296
12.855,107427
12.8624,102223
12.8698,100012
12.8771,93009
12.8845,90385
12.8919,96413
12.8993,104300
12.9066,106014
12.914,101211
12.9214,91511
12.9288,92008
12.9361,97679
12.9435,102799
12.9509,97829
12.9583,90215
12.9656,90015
12.973,101997
12.9804,113829
12.9878,113386
12.9952,100212
13.0025,92000
13.0099,95701
13.0173,102080
13.0247,97704
13.032,96078
13.0394,104360
13.0468,104049
13.0542,94098
13.0615,86663
13.0689,87090
13.0763,89023
13.0837,90267
13.091,88368
13.0984,85989
13.1058,88018
13.1132,90364
13.1205,90708
13.1279,87570
13.1353,86240
13.1427,84602
13.1501,84891
13.1574,86388
13.1648,88356
13.1722,85874
13.1796,87139
13.1869,86956
13.1943,87234
13.2017,88290
13.2091,86341
13.2164,86096
13.2238,89464
13.2312,131978
13.2386,261247
13.2459,318038
13.2533,198455
13.2607,112905
13.2681,93623
13.2755,94586
13.2828,93001
13.2902,93657
13.2976,104614
13.305,129676
13.3123,183012
13.3197,203623
13.3271,162055
13.3345,117464
13.3418,100693
13.3492,90051
13.3566,87830
13.364,89180
13.3713,86146
13.3787,84572
13.3861,83842
13.3935,85936
13.4009,83887
13.4082,83781
13.4156,83329
13.423,83708
13.4304,84726
13.4377,85867
13.4451,85800
13.4525,85273
13.4599,82072
13.4672,81220
13.4746,79573
13.482,82085
13.4894,85876
13.4967,88548
13.5041,86598
13.5115,83100
13.5189,81196
13.5263,82568
13.5336,90360
13.541,93454
13.5484,92709
13.5558,88879
13.5631,91512
13.5705,90671
13.5779,87751
13.5853,85243
13.5926,83319
13.6,86731
13.6074,83724
13.6148,81588
13.6221,82204
13.6295,81859
13.6369,83127
13.6443,87074
13.6516,87098
13.659,84680
13.6664,81104
13.6738,83783
13.6812,88713
13.6885,87702
13.6959,83034
13.7033,82020
13.7107,83483
13.718,83326
13.7254,82177
13.7328,81490
13.7402,91863
13.7475,99165
13.7549,91420
13.7623,80988
13.7697,79273
13.777,76380
13.7844,78191
13.7918,79816
13.7992,80539
13.8066,83833
13.8139,83644
13.8213,84362
13.8287,80100
13.8361,78717
13.8434,79064
13.8508,79398
13.8582,76595
13.8656,76979
13.8729,79750
13.8803,86499
13.8877,94273
13.8951,95596
13.9024,88468
13.9098,82041
13.9172,86005
13.9246,130057
13.932,219010
13.9393,205648
13.9467,127929
13.9541,90313
13.9615,83904
13.9688,81267
13.9762,80647
13.9836,79620
13.991,81403
13.9983,82217
14.0057,83227
14.0131,81683
14.0205,80320
14.0278,81088
14.0352,81823
14.0426,83529
14.05,80368
14.0573,76132
14.0647,76705
14.0721,78953
14.0795,78649
14.0869,78964
14.0942,75230
14.1016,75037
14.109,75530
14.1164,75177
14.1237,74287
14.1311,74082
14.1385,73734
14.1459,74881
14.1532,76502
14.1606,76146
14.168,76361
14.1754,74608
14.1827,74875
14.1901,75119
14.1975,79356
14.2049,79911
14.2123,80880
14.2196,79263
14.227,78179
14.2344,77437
14.2418,80084
14.2491,76724
14.2565,76220
14.2639,75463
14.2713,76571
14.2786,73757
14.286,72396
14.2934,73513
14.3008,73234
14.3081,75647
14.3155,78088
14.3229,76592
14.3303,74676
14.3377,76126
14.345,80210
14.3524,78182
14.3598,73817
14.3672,73214
14.3745,76208
14.3819,73798
14.3893,78139
14.3967,82743
14.404,78948
14.4114,74308
14.4188,73586
14.4262,77409
14.4335,79396
14.4409,75021
14.4483,71565
14.4557,72923
14.463,73779
14.4704,76055
14.4778,74647
14.4852,73313
14.4926,72866
14.4999,72581
14.5073,73138
14.5147,71962
14.5221,71252
14.5294,71128
14.5368,70649
14.5442,71585
14.5516,77743
14.5589,111246
14.5663,166940
14.5737,155415
14.5811,100479
14.5884,81888
14.5958,77338
14.6032,77184
14.6106,73655
14.618,74440
14.6253,74106
14.6327,74262
14.6401,74371
14.6475,75198
14.6548,73951
14.6622,72696
14.6696,74584
14.677,75494
14.6843,76081
14.6917,74766
14.6991,72472
14.7065,71716
14.7138,71666
14.7212,69954
14.7286,69003
14.736,68620
14.7434,69838
14.7507,68978
14.7581,68579
14.7655,69754
14.7729,69490
14.7802,72804
14.7876,73736
14.795,76349
14.8024,75108
14.8097,74295
14.8171,72323
14.8245,71450
14.8319,73771
14.8392,69646
14.8466,70765
14.854,71484
14.8614,71545
14.8687,71732
14.8761,70570
14.8835,69797
14.8909,69783
14.8983,71712
14.9056,70937
14.913,70430
14.9204,72550
14.9278,74754
14.9351,73392
14.9425,70818
14.9499,69587
14.9573,70851
14.9646,69407
14.972,70698
14.9794,74008
14.9868,72880
14.9941,74846
15.0015,74658
15.0089,73578
15.0163,73488
15.0237,74353
15.031,73486
15.0384,69296
15.0458,70530
15.0532,71108
15.0605,69518
15.0679,68490
15.0753,69209
15.0827,67373
15.09,66957
15.0974,66834
15.1048,69525
15.1122,82165
15.1195,119679
15.1269,128853
15.1343,92383
15.1417,75263
15.1491,72070
15.1564,71315
15.1638,70678
15.1712,68782
15.1786,70044
15.1859,69185
15.1933,67523
15.2007,69859
15.2081,70492
15.2154,69475
15.2228,67636
15.2302,68396
15.2376,69533
15.2449,69770
15.2523,68100
15.2597,67773
15.2671,66579
15.2745,66960
15.2818,67774
15.2892,70090
15.2966,70095
15.304,69905
15.3113,68197
15.3187,70592
15.3261,71748
15.3335,70917
15.3408,69652
15.3482,69212
15.3556,69692
15.363,66876
15.3703,68171
15.3777,67964
15.3851,68471
15.3925,68593
15.3998,67692
15.4072,68045
15.4146,68951
15.422,67991
15.4294,68428
15.4367,69667
15.4441,69675
15.4515,69002
15.4589,66748
15.4662,66761
15.4736,68337
15.481,69454
15.4884,70674
15.4957,68752
15.5031,66984
15.5105,67946
15.5179,69703
15.5252,68221
15.5326,69466
15.54,68478
15.5474,70912
15.5548,69575
15.5621,69244
15.5695,66845
15.5769,66482
15.5843,66746
15.5916,65942
15.599,65166
15.6064,74728
15.6138,93544
15.6211,96122
15.6285,77442
15.6359,71916
15.6433,69689
15.6506,70301
15.658,69689
15.6654,68403
15.6728,70355
15.6802,69025
15.6875,68197
15.6949,69741
15.7023,69503
15.7097,68680
15.717,68461
15.7244,69428
15.7318,67986
15.7392,68593
15.7465,67632
15.7539,68097
15.7613,67049
15.7687,68160
15.776,68954
15.7834,70059
15.7908,71533
15.7982,69922
15.8055,69647
15.8129,70511
15.8203,69196
15.8277,70265
15.8351,69982
15.8424,70713
15.8498,68939
15.8572,68507
15.8646,69358
15.8719,70194
15.8793,69000
15.8867,70755
15.8941,71393
15.9014,72222
15.9088,71090
15.9162,71265
15.9236,71269
15.9309,69870
15.9383,71703
15.9457,72154
15.9531,70171
15.9605,72218
15.9678,72300
15.9752,71257
15.9826,71812
15.99,70987
15.9973,72208
16.0047,71918
16.0121,73946
16.0194,73802
16.0268,75467
16.0342,74981
16.0416,74620
16.049,76059
16.0563,83850
16.0637,91892
16.0711,83072
16.0785,79519
16.0859,78805
16.0932,77294
16.1006,78693
16.108,79057
16.1153,79711
16.1227,77669
16.1301,77151
16.1375,76822
16.1449,77149
16.1522,77620
16.1596,76619
16.167,74432
16.1744,74689
16.1817,73163
16.1891,72903
16.1965,72453
16.2039,73000
16.2112,73377
16.2186,73737
16.226,73438
16.2334,74546
16.2407,72400
16.2481,74713
16.2555,74659
16.2629,73383
16.2703,72052
16.2776,73307
16.285,73904
16.2924,73534
16.2998,74372
16.3071,73299
16.3145,72448
16.3219,73181
16.3293,72934
16.3366,74780
16.344,74310
16.3514,74539
16.3588,75150
16.3662,73790
16.3735,73874
16.3809,74839
16.3883,74154
16.3957,74019
16.403,74387
16.4104,73755
16.4178,74455
16.4251,72938
16.4325,74356
16.4399,74948
16.4473,73588
16.4547,75357
16.462,74321
16.4694,74290
16.4768,74976
16.4842,75563
16.4916,74744
16.4989,79527
16.5063,80628
16.5137,77713
16.521,74977
16.5284,76227
16.5358,75128
16.5432,77086
16.5506,75863
16.5579,76062
16.5653,74810
16.5727,75713
16.5801,75446
16.5874,76456
16.5948,75592
16.6022,78807
16.6096,74476
16.6169,76783
16.6243,76733
16.6317,75283
16.6391,75872
16.6465,74779
16.6538,74505
16.6612,74297
16.6686,76233
16.676,76001
16.6833,76316
16.6907,76421
16.6981,76576
16.7054,75839
16.7128,76354
16.7202,75713
16.7276,73942
16.735,74696
16.7423,75939
16.7497,77036
16.7571,73919
16.7645,76141
16.7719,75336
16.7792,76093
16.7866,75523
16.794,75685
16.8013,76419
16.8087,76279
16.8161,75094
16.8235,75611
16.8309,76509
16.8382,75699
16.8456,75811
16.853,75656
16.8604,76136
16.8677,75769
16.8751,74883
16.8825,77036
16.8899,75357
16.8973,75342
16.9046,76617
16.912,76280
16.9194,74350
16.9267,76248
16.9341,76768
16.9415,76549
16.9489,76672
16.9563,76566
16.9636,77587
16.971,76915
16.9784,75119
16.9858,77865
16.9931,78917
17.0005,75449
17.0079,76635
17.0153,76743
17.0226,74988
17.03,76774
17.0374,76637
17.0448,76071
17.0522,75794
17.0595,75726
17.0669,75784
17.0743,76221
17.0817,75989
17.089,74918
17.0964,75409
17.1038,76629
17.1112,76364
17.1185,75167
17.1259,76240
17.1333,74410
17.1407,76345
17.148,75120
17.1554,75632
17.1628,76202
17.1702,75839
17.1776,75398
17.1849,76527
17.1923,76073
17.1997,75623
17.207,75240
17.2144,75574
17.2218,75024
17.2292,74820
17.2366,72702
17.2439,73439
17.2513,76071
17.2587,74742
17.2661,75939
17.2734,75593
17.2808,75215
17.2882,74278
17.2956,75424
17.3029,75887
17.3103,76491
17.3177,76782
17.3251,74949
17.3325,74926
17.3398,76589
17.3472,72829
17.3546,74906
17.362,75816
17.3693,74818
17.3767,74991
17.3841,75953
17.3915,74422
17.3988,74152
17.4062,74828
17.4136,75728
17.421,76368
17.4283,75030
17.4357,72960
17.4431,74211
17.4505,75131
17.4579,75365
17.4652,75460
17.4726,73500
17.48,74139
17.4873,76138
